time_s,ecg,ppg,label
0.0,-0.18276182113008335,-67.89,1
0.015625,-0.17832927996347978,-76.03,1
0.03125,-0.1622532239001174,-82.42,1
0.046875,-0.14297355545976104,-86.28,1
0.0625,-0.16189191131542907,-86.07,1
0.078125,-0.1357741930490597,-80.36,1
0.09375,-0.1272250178089675,-68.86,1
0.109375,-0.11710836279331031,-52.7,1
0.125,-0.12766000874699313,-34.1,1
0.140625,-0.041773423515765434,-15.8,1
0.15625,-0.052013343824634,-0.06,1
0.171875,0.08871388764946761,11.93,1
0.1875,0.08877643888039978,18.11,1
0.203125,-0.04775069364783252,18.22,1
0.21875,-0.05645602979231572,14.47,1
0.234375,-0.0991190942254147,10.03,1
0.25,-0.12523144711238712,7.44,1
0.265625,-0.06134902246916193,8.08,1
0.28125,-0.1294867663850578,12.04,1
0.296875,-0.31839108487827417,18.51,1
0.3125,1.0407310613459022,26.03,1
0.328125,1.571625682720417,33.0,1
0.34375,-0.0075392866325890056,38.44,1
0.359375,-0.21209098662852605,41.79,1
0.375,-0.17098327166846217,42.44,1
0.390625,-0.2264430022352902,39.69,1
0.40625,-0.19012939043757854,33.17,1
0.421875,-0.14924941276014114,23.15,1
0.4375,-0.09264599931111178,10.95,1
0.453125,-0.05226548746123613,-1.09,1
0.46875,-0.003677364582571954,-10.34,1
0.484375,0.04472847688810438,-14.63,1
0.5,0.11872374925562182,-13.38,1
0.515625,0.2079186752748424,-8.28,1
0.53125,0.3343377877426595,-2.2,1
0.546875,0.42777748773137114,2.27,1
0.5625,0.5302764692426913,3.9,1
0.578125,0.5589143164554592,3.16,1
0.59375,0.38766374197747805,1.68,1
0.609375,0.03636956596761695,1.23,1
0.625,-0.17218093075832244,3.17,1
0.640625,-0.3921643532672104,8.07,1
0.65625,-0.4150635085455888,15.25,1
0.671875,-0.388529447775253,23.39,1
0.6875,-0.42210501756755686,30.81,1
0.703125,-0.3295460236148956,35.66,1
0.71875,-0.34366249493814993,36.42,1
0.734375,-0.2644132747351318,32.5,1
0.75,-0.2612719396088143,24.65,1
0.765625,-0.22586188289202885,14.57,1
0.78125,-0.18377203956460306,5.21,1
0.796875,-0.17495023028834722,-1.96,1
0.8125,-0.12345194467929407,-7.27,1
0.828125,-0.15136384117550616,-12.21,1
0.84375,-0.12368778742685706,-18.13,1
0.859375,-0.15401276434670538,-25.01,1
0.875,-0.07069936656098308,-30.99,1
0.890625,-0.07115130157300506,-33.2,1
0.90625,-0.06769162785845621,-29.78,1
0.921875,-0.03844951300730835,-19.96,1
0.9375,-0.0657759179719975,-5.86,1
0.953125,-0.03731486344616336,8.59,1
0.96875,-0.04022050572804894,19.16,1
0.984375,0.028867252662298434,22.68,1
1.0,-0.0239080937334931,18.04,1
1.015625,-0.03557717317991033,6.26,1
1.03125,0.053968213691561906,-10.14,1
1.046875,0.06005428899110031,-27.96,1
1.0625,0.1449951215488738,-43.3,1
1.078125,0.028783806727698133,-53.52,1
1.09375,0.0069400948356624454,-57.15,1
1.109375,-0.03714587489721449,-53.81,1
1.125,-0.05117165822358751,-44.32,1
1.140625,-0.09776528229213233,-30.71,1
1.15625,0.0012968534633823713,-15.79,1
1.171875,-0.23801704250494882,-2.41,1
1.1875,0.14441653888709938,7.5,1
1.203125,1.6715487829467714,13.38,1
1.21875,0.9834187625091703,16.08,1
1.234375,-0.1259924492802466,16.96,1
1.25,-0.10832086673929664,17.46,1
1.265625,-0.21155999612598905,18.59,1
1.28125,-0.2076334966619108,20.85,1
1.296875,-0.2122508475119048,24.4,1
1.3125,-0.1690639714962613,29.06,1
1.328125,-0.14410187034728109,34.41,1
1.34375,-0.09281110159971888,39.59,1
1.359375,-0.03346338368312461,43.24,1
1.375,-0.02423969700799151,44.07,1
1.390625,0.05964094830702959,41.47,1
1.40625,0.1411842941601019,35.75,1
1.421875,0.22619152765208486,28.1,1
1.4375,0.333434437815814,20.15,1
1.453125,0.39923214821473496,13.47,1
1.46875,0.41936515512717426,9.27,1
1.484375,0.28004352349864575,8.09,1
1.5,0.0003387011742628815,9.88,1
1.515625,-0.2116377405368727,13.92,1
1.53125,-0.2928306884351054,18.92,1
1.546875,-0.31470057182373196,23.12,1
1.5625,-0.27755930603257695,24.75,1
1.578125,-0.2923455143231451,22.43,1
1.59375,-0.21987874075633065,15.42,1
1.609375,-0.23939213535908566,3.87,1
1.625,-0.20202300322567793,-11.77,1
1.640625,-0.18306548196908287,-30.77,1
1.65625,-0.17321924505891634,-52.31,1
1.671875,-0.11482105801947709,-75.3,1
1.6875,-0.1280406315987399,-98.02,1
1.703125,-0.1323883416117076,-118.17,1
1.71875,-0.09622140860297862,-133.19,1
1.734375,-0.11752649366619486,-140.96,1
1.75,-0.10000158121664991,-140.49,1
1.765625,-0.07159609950265239,-132.37,1
1.78125,-0.08752715539292279,-118.3,1
1.796875,-0.06962908906122668,-100.47,1
1.8125,-0.03698957496529964,-81.16,1
1.828125,-0.06721682826994112,-62.52,1
1.84375,-0.06219572277568498,-46.3,1
1.859375,-0.0657541579449458,-33.42,1
1.875,0.0062256996411812135,-23.61,1
1.890625,-0.0196520729143343,-15.32,1
1.90625,0.008630185693191149,-6.41,1
1.921875,-0.018243007760906614,5.91,1
1.9375,0.009159470990861533,24.49,1
1.953125,0.0016881781531338257,51.02,1
1.96875,0.008813088178649798,84.94,1
1.984375,0.012769808536637764,122.91,1
2.0,0.037130843909471974,158.85,1
2.015625,0.06806268807546595,184.76,1
2.03125,0.1422954762551822,192.64,1
2.046875,0.08547129874001487,176.94,1
2.0625,0.04067582659634804,138.48,1
2.078125,0.04952251279220637,85.09,1
2.09375,0.042589443437221194,28.77,1
2.109375,-0.02354000967026434,-19.02,1
2.125,0.06443302251084221,-51.29,1
2.140625,-0.22027857124905686,-66.58,1
2.15625,0.3860431868604828,-67.37,1
2.171875,1.72248567101146,-57.48,1
2.1875,0.7419312163392972,-41.1,1
2.203125,0.04250458509522041,-21.53,1
2.21875,-0.019111647923163465,-2.45,1
2.234375,-0.15889791566746167,10.94,1
2.25,-0.13648155314391663,13.07,1
2.265625,-0.1340811583273475,1.48,1
2.28125,-0.08074505297505039,-20.02,1
2.296875,-0.016093179800327477,-41.19,1
2.3125,-0.01529539835738044,-46.98,1
2.328125,0.029620734420648685,-29.83,1
2.34375,0.06576520366480551,4.65,1
2.359375,0.14700053185770856,43.15,1
2.375,0.25260527901457663,73.39,1
2.390625,0.2980261567404439,88.76,1
2.40625,0.36375088592441396,88.33,1
2.421875,0.45907001231816474,74.89,1
2.4375,0.42123451754605346,52.48,1
2.453125,0.3303533909797779,27.12,1
2.46875,0.08909651256198814,-0.05,1
2.484375,-0.08860583481711083,-26.21,1
2.5,-0.19522771865027055,-46.77,1
2.515625,-0.23338690371899312,-57.88,1
2.53125,-0.21580393231116646,-58.83,1
2.546875,-0.15253088123466188,-52.79,1
2.5625,-0.1367732590336151,-45.31,1
2.578125,-0.11265257705104859,-41.81,1
2.59375,-0.1319612456739316,-45.26,1
2.609375,-0.07565364941493741,-55.2,1
2.625,-0.06844637120811398,-67.18,1
2.640625,-0.05750343385559454,-73.93,1
2.65625,-0.035099970540790205,-68.93,1
2.671875,-0.05618936227408666,-49.73,1
2.6875,-0.026358322632135233,-19.09,1
2.703125,-0.051172941307493176,16.41,1
2.71875,-0.05844776228216397,49.27,1
2.734375,-0.027839677352779292,74.2,1
2.75,-0.009309516968515685,89.07,1
2.765625,-0.01637174084071668,95.55,1
2.78125,0.00020336787327024375,97.22,1
2.796875,-0.05247372306769911,97.04,1
2.8125,-0.032252512457640395,95.89,1
2.828125,0.002439397491721428,92.82,1
2.84375,-0.008902603890916494,86.3,1
2.859375,-0.01020316340162384,75.71,1
2.875,-0.04320745073178991,62.03,1
2.890625,-0.021623542387313652,47.15,1
2.90625,0.00065116716963069,33.09,1
2.921875,-0.032350038986217265,20.83,1
2.9375,0.09435594066040366,9.7,1
2.953125,0.0767348003487668,-1.9,1
2.96875,0.022330142873145623,-14.97,1
2.984375,-0.05553155047876109,-28.94,1
3.0,-0.058089403231777095,-41.38,1
3.015625,-0.047356885410978905,-48.93,1
3.03125,-0.010577230422004862,-49.34,1
3.046875,-0.12731181412709625,-42.74,1
3.0625,-0.1948940081438479,-31.85,1
3.078125,1.2814791233257536,-20.75,1
3.09375,1.3340099001171437,-12.86,1
3.109375,0.07132888537410374,-9.54,1
3.125,-0.08370794133913691,-9.65,1
3.140625,-0.2118947082229302,-12.32,1
3.15625,-0.22873293813126402,-17.2,1
3.171875,-0.2226791535705124,-24.05,1
3.1875,-0.18087445901334284,-32.4,1
3.203125,-0.09636095256636477,-41.61,1
3.21875,-0.08884923921703311,-51.03,1
3.234375,-0.03943138190291787,-60.04,1
3.25,0.012255690582029933,-68.4,1
3.265625,0.0635180437594253,-76.54,1
3.28125,0.13900406053535438,-84.2,1
3.296875,0.23178875846546582,-88.99,1
3.3125,0.3315330042194542,-86.21,1
3.328125,0.4261445702394685,-70.78,1
3.34375,0.45276154021970016,-40.31,1
3.359375,0.33345704152072314,2.06,1
3.375,0.1192542644144119,47.6,1
3.390625,-0.10285879778696927,86.99,1
3.40625,-0.24188166503240902,111.25,1
3.421875,-0.28812430229524794,115.83,1
3.4375,-0.2961538608246376,102.44,1
3.453125,-0.2666184767114384,77.63,1
3.46875,-0.22387930708071938,49.29,1
3.484375,-0.21952681897044465,23.26,1
3.5,-0.18215616278767224,1.48,1
3.515625,-0.16428496913434293,-16.67,1
3.53125,-0.1506628767142847,-32.43,1
3.546875,-0.13031104694091564,-46.28,1
3.5625,-0.12768654766041831,-57.2,1
3.578125,-0.12319459959797,-63.46,1
3.59375,-0.12700178982375437,-64.29,1
3.609375,-0.1370603709090318,-60.96,1
3.625,-0.12161506295028056,-54.56,1
3.640625,-0.10651644557386968,-48.22,1
3.65625,-0.10036279188544853,-44.56,1
3.671875,-0.07784146605487062,-44.55,1
3.6875,-0.09203668637024036,-47.6,1
3.703125,-0.06654964429977477,-51.79,1
3.71875,-0.03562629449911621,-54.81,1
3.734375,0.013324847129272245,-54.85,1
3.75,0.05047006115231446,-51.15,1
3.765625,-0.04136228807472377,-43.8,1
3.78125,-0.04351426662987741,-33.61,1
3.796875,-0.08315873696955857,-21.25,1
3.8125,-0.06338548036059727,-7.38,1
3.828125,-0.0829881665870799,6.99,1
3.84375,-0.0706624334562672,20.4,1
3.859375,-0.3471883432705676,31.07,1
3.875,0.8400493452023667,37.6,1
3.890625,1.5920749369318228,39.63,1
3.90625,0.1875346181775775,38.24,1
3.921875,-0.1534913134805025,35.28,1
3.9375,-0.18403753024387856,32.69,1
3.953125,-0.21367485453416493,31.46,1
3.96875,-0.18627753180453924,31.17,1
3.984375,-0.18265335543396194,30.58,1
4.0,-0.13660569590757332,28.41,1
4.015625,-0.09088651793260383,23.96,1
4.03125,-0.043585866140647245,17.07,1
4.046875,-0.00056385210071943,7.88,1
4.0625,0.069810129568701,-3.61,1
4.078125,0.155696446511484,-17.14,1
4.09375,0.2677710281281638,-31.7,1
4.109375,0.36114374737964383,-45.41,1
4.125,0.48701305843301945,-55.87,1
4.140625,0.4677888065016829,-61.08,1
4.15625,0.3534906376745935,-60.36,1
4.171875,0.0936352985416618,-54.64,1
4.1875,-0.11963937894296583,-45.91,1
4.203125,-0.26724889596551327,-36.17,1
4.21875,-0.3124720703360171,-26.42,1
4.234375,-0.3172987770516889,-16.47,1
4.25,-0.31261150207340643,-5.67,1
4.265625,-0.27286377266752304,6.21,1
4.28125,-0.268445348280716,18.27,1
4.296875,-0.19684085060008927,28.56,1
4.3125,-0.1795429103763408,34.68,1
4.328125,-0.1900086579127832,34.83,1
4.34375,-0.12991981615953965,28.41,1
4.359375,-0.1373808126006483,16.23,1
4.375,-0.11647607569808896,0.03,1
4.390625,-0.10645714683942582,-18.34,1
4.40625,-0.0955165522451803,-37.67,1
4.421875,-0.08428774530433644,-57.59,1
4.4375,-0.07286102032976038,-78.05,1
4.453125,-0.036140233418611854,-98.45,1
4.46875,0.008105478584113292,-116.83,1
4.484375,0.08959104926778405,-129.86,1
4.5,-0.01746380119312826,-133.62,1
4.515625,-0.07840300429064054,-125.12,1
4.53125,-0.09035277008068457,-103.66,1
4.546875,-0.060576011972657044,-71.61,1
4.5625,-0.10084654474255801,-33.89,1
4.578125,-0.03493056025722073,3.49,1
4.59375,-0.2882235038294781,35.46,1
4.609375,0.5669829277563808,59.38,1
4.625,1.660623446254279,75.6,1
4.640625,0.2522393909571893,86.64,1
4.65625,-0.2155908268016183,95.43,1
4.671875,-0.08302477376722738,103.59,1
4.6875,-0.17163427361159048,110.12,1
4.703125,-0.12786723254540863,111.51,1
4.71875,-0.09381916508389265,103.21,1
4.734375,-0.07052551109924392,81.57,1
4.75,-0.03454616144820108,45.71,1
4.765625,0.00465552737527104,-1.74,1
4.78125,0.06600476798798414,-55.36,1
4.796875,0.07545329537067076,-108.6,1
4.8125,0.18648904123930488,-155.48,1
4.828125,0.2507265428133785,-191.66,1
4.84375,0.35939287389333646,-214.52,1
4.859375,0.4223030698860129,-222.82,1
4.875,0.4732038462281634,-216.33,1
4.890625,0.30879692712332235,-195.72,1
4.90625,0.06886604426939144,-162.78,1
4.921875,-0.13649911896117084,-120.54,1
4.9375,-0.322103507113773,-72.94,1
4.953125,-0.34853382741302386,-24.12,1
4.96875,-0.3528100970414229,22.37,1
4.984375,-0.32461254307223747,64.19,1
5.0,-0.3096916909967948,100.11,1
5.015625,-0.2730403402787819,129.6,1
5.03125,-0.2692784575704853,152.26,1
5.046875,-0.18131159907062197,167.52,1
5.0625,-0.20586455419901137,174.72,1
5.078125,-0.17335760071524195,173.49,1
5.09375,-0.17267612157114465,164.32,1
5.109375,-0.1558265428717303,148.63,1
5.125,-0.16953693020937366,128.81,1
5.140625,-0.1492500885603502,107.75,1
5.15625,-0.11737957492406036,88.22,1
5.171875,-0.05630634536223397,72.47,1
5.1875,0.000689904711711531,61.95,1
5.203125,-0.08656241798300736,57.16,1
5.21875,-0.16293059578349947,57.59,1
5.234375,-0.1802582745967066,61.6,1
5.25,-0.14610925916365813,66.55,1
5.265625,-0.17649461789755114,69.48,1
5.28125,-0.0853368063473452,68.12,1
5.296875,-0.3078804641497113,62.08,1
5.3125,0.35667778680058365,53.29,1
5.328125,1.697311306053202,45.47,1
5.34375,0.49237210338689846,42.66,1
5.359375,-0.20126425134877451,47.37,1
5.375,-0.07449557629256422,59.48,1
5.390625,-0.157063154227739,76.09,1
5.40625,-0.12702404719433727,92.63,1
5.421875,-0.11441416300760715,104.53,1
5.4375,-0.060874833915362345,108.41,1
5.453125,-0.04480655549074622,102.7,1
5.46875,0.00670957259940995,87.48,1
5.484375,0.0626273849092049,64.21,1
5.5,0.10391058537265639,35.48,1
5.515625,0.19419617941773423,4.98,1
5.53125,0.2793025771419488,-22.88,1
5.546875,0.34801394274797737,-43.61,1
5.5625,0.4586855134586768,-53.88,1
5.578125,0.4886447957740095,-52.63,1
5.59375,0.3858681048717609,-41.58,1
5.609375,0.1629983231445046,-24.66,1
5.625,-0.025808764256825156,-6.68,1
5.640625,-0.17609244380498104,8.38,1
5.65625,-0.2400148370873025,18.55,1
5.671875,-0.2294916524382346,24.09,1
5.6875,-0.21769625835409512,26.78,1
5.703125,-0.1935045355044519,28.69,1
5.71875,-0.16468547384474205,31.16,1
5.734375,-0.1456091215826323,34.46,1
5.75,-0.13925144676716864,37.98,1
5.765625,-0.12573317437845127,40.86,1
5.78125,-0.1434249307083609,42.47,1
5.796875,-0.07309790961523266,42.66,1
5.8125,-0.13709704064401448,41.55,1
5.828125,-0.11737971227383692,39.35,1
5.84375,-0.12628282008177838,36.1,1
5.859375,-0.11363998075890892,31.7,1
5.875,-0.12202549911128761,26.1,1
5.890625,-0.0956282942415457,19.46,1
5.90625,-0.08193479443438959,12.29,1
5.921875,-0.09989166561548296,5.23,1
5.9375,-0.07614396715012892,-1.1,1
5.953125,-0.04965011421595132,-6.41,1
5.96875,-0.008402600352197906,-10.72,1
5.984375,0.05493613611756287,-14.25,1
6.0,0.034481007950457616,-17.12,1
6.015625,-0.0549313805632511,-19.13,1
6.03125,-0.07855445104565374,-19.9,1
6.046875,-0.11022660183305448,-19.11,1
6.0625,-0.08568898322181574,-16.66,1
6.078125,-0.07845032751048746,-12.78,1
6.09375,-0.09908057451777484,-7.93,1
6.109375,-0.30239186836076326,-2.66,1
6.125,1.1100385099357286,2.6,1
6.140625,1.5522144725089677,7.54,1
6.15625,0.2509230155910885,12.07,1
6.171875,-0.13030642908932705,16.13,1
6.1875,-0.2241996922896094,19.66,1
6.203125,-0.2886334303336921,22.63,1
6.21875,-0.23765564147113982,25.09,1
6.234375,-0.1962179175271302,27.1,1
6.25,-0.1677068336395861,28.7,1
6.265625,-0.12954686787714728,29.82,1
6.28125,-0.07605243019911068,30.32,1
6.296875,-0.03851099082043602,30.2,1
6.3125,0.04744415049657857,29.46,1
6.328125,0.11100165753735355,28.11,1
6.34375,0.20241771041749176,26.26,1
6.359375,0.2836446245744843,24.2,1
6.375,0.3663932130653474,22.24,1
6.390625,0.4413047377338123,20.64,1
6.40625,0.3184614367162292,19.46,1
6.421875,0.09846176811269092,18.54,1
6.4375,-0.10974394560735738,17.96,1
6.453125,-0.19403617467185663,17.46,1
6.46875,-0.24274436835545896,16.5,1
6.484375,-0.2159790587140068,14.5,1
6.5,-0.17624188788288467,11.29,1
6.515625,-0.2058096332231677,7.13,1
6.53125,-0.17677620524550394,2.5,1
6.546875,-0.14018899465667067,-2.06,1
6.5625,-0.12582439894119715,-6.12,1
6.578125,-0.10839932075800583,-8.62,1
6.59375,-0.11140882719039433,-9.19,1
6.609375,-0.11627320376345485,-8.36,1
6.625,-0.10316476744577757,-7.06,1
6.640625,-0.11815266058614268,-5.89,1
6.65625,-0.12252068506789354,-4.99,1
6.671875,-0.11937929906999607,-4.21,1
6.6875,-0.10278114280261942,-3.28,1
6.703125,-0.10288420432819578,-1.81,1
6.71875,-0.08393830125780329,1.95,1
6.734375,-0.0703640173646142,8.82,1
6.75,-0.08553867849889454,18.12,1
6.765625,-0.07617409525130367,28.13,1
6.78125,-0.047109480899864484,37.18,1
6.796875,-0.07133132620600559,44.03,1
6.8125,-0.07547572294184941,47.98,1
6.828125,-0.010734165713798642,48.94,1
6.84375,-0.0018908762457824266,47.45,1
6.859375,0.06315704902335768,45.99,1
6.875,-0.015310439534147555,45.9,1
6.890625,-0.0427569270051293,46.59,1
6.90625,-0.11014978407302192,46.51,1
6.921875,-0.05913267225336937,44.75,1
6.9375,-0.10880483823411069,41.56,1
6.953125,-0.019704801135929984,37.85,1
6.96875,-0.35792010087816784,34.63,1
6.984375,0.48501946295667275,21.75,1
7.0,1.7316996955040431,-2.93,1
7.015625,0.7351648441097508,-33.3,1
7.03125,-0.04807119458159963,-61.11,1
7.046875,-0.15763738259884566,-82.69,1
7.0625,-0.283320852866547,-98.17,1
7.078125,-0.24852908270250665,-108.52,1
7.09375,-0.22927736609184263,-114.28,1
7.109375,-0.18745001259468114,-115.69,1
7.125,-0.11588625021143766,-113.29,1
7.140625,-0.10599119075048546,-106.57,1
7.15625,-0.06217674612005974,-97.33,1
7.171875,0.012455081513754204,-88.15,1
7.1875,0.0866548541233568,-81.64,1
7.203125,0.16756333058086148,-78.55,1
7.21875,0.21752673215896945,-77.68,1
7.234375,0.3169054232775894,-76.96,1
7.25,0.4111593550061518,-74.55,1
7.265625,0.36634623658729487,-69.6,1
7.28125,0.20919143015414407,-61.22,1
7.296875,-0.022840658524293716,-50.55,1
7.3125,-0.16203251161149204,-40.28,1
7.328125,-0.18137447437088478,-32.63,1
7.34375,-0.2342403904044625,-28.48,1
7.359375,-0.18156306538412753,-27.2,1
7.375,-0.16508275125731386,-27.51,1
7.390625,-0.17312919163231943,-28.24,1
7.40625,-0.129563256859771,-28.75,1
7.421875,-0.082093037595606,-28.13,1
7.4375,-0.10322830375691988,-26.86,1
7.453125,-0.06081322835097838,-26.14,1
7.46875,-0.07297587325233935,-26.45,1
7.484375,-0.05621268345699984,-26.77,1
7.5,-0.07092052087348598,-25.34,1
7.515625,-0.05301816074683202,-20.84,1
7.53125,-0.05123198112860622,-12.85,1
7.546875,-0.04280023636543482,-2.04,1
7.5625,-0.051571792484725376,10.65,1
7.578125,-0.036179928031905007,23.2,1
7.59375,-0.04082731081932368,33.14,1
7.609375,-0.013536327240816052,38.46,1
7.625,-0.043479951155671666,37.93,1
7.640625,-0.01774549270801714,30.19,1
7.65625,-0.017398887141712355,14.12,1
7.671875,0.011165188989261852,-9.97,1
7.6875,-0.037012348585696304,-39.61,1
7.703125,-0.0590349126908452,-65.0,1
7.71875,-0.00040322490393957997,-74.82,1
7.734375,-0.016920538787588556,-65.06,1
7.75,0.01237508260798888,-40.86,1
7.765625,0.037133162650375875,-11.51,1
7.78125,0.021774455031982005,14.55,1
7.796875,0.008560869398560492,33.24,1
7.8125,-0.00084958046316633,45.5,1
7.828125,0.013203275315007035,54.94,1
7.84375,0.04878130623692915,64.74,1
7.859375,0.03244033353982239,74.41,1
7.875,0.02381330245492478,79.98,1
7.890625,0.024446873803634306,76.87,1
7.90625,0.034041383840959935,62.78,1
7.921875,0.046263094417854464,39.69,1
7.9375,0.006802544244007901,10.97,1
7.953125,0.026059522939124728,-18.03,1
7.96875,0.05817923382370514,-42.1,1
7.984375,0.1314043856298464,-57.61,1
8.0,0.09273333056488789,-63.87,1
8.015625,0.05118198824185964,-62.59,1
8.03125,-0.026910288908404526,-56.35,1
8.046875,0.017766561871435545,-45.55,1
8.0625,-0.008859082694719148,-33.98,1
8.078125,0.04110165733505055,-24.81,1
8.09375,-0.2942127649257354,-18.96,1
8.109375,0.5819384625323101,-15.63,1
8.125,1.6850992569383307,-13.15,1
8.140625,0.6612510701921708,-10.5,1
8.15625,-0.01098077470912718,-7.58,1
8.171875,-0.1721645277913212,-4.73,1
8.1875,-0.2635591045575433,-2.11,1
8.203125,-0.24393429850795137,0.2,1
8.21875,-0.20757059597979752,2.81,1
8.234375,-0.2021067984740943,6.54,1
8.25,-0.14179858334987883,11.67,1
8.265625,-0.11585133584447094,17.55,1
8.28125,-0.06854643441361209,22.69,1
8.296875,-0.034012352996748395,25.56,1
8.3125,0.023233283912611143,25.61,1
8.328125,0.07956776923072162,23.12,1
8.34375,0.16707741557003983,19.15,1
8.359375,0.2466420107586728,15.48,1
8.375,0.34148657367200164,13.71,1
8.390625,0.35395677669084813,14.45,1
8.40625,0.21896932010326955,17.2,1
8.421875,0.02782571483680421,20.53,1
8.4375,-0.11776755777683234,22.88,1
8.453125,-0.21859677221805257,23.2,1
8.46875,-0.24441878677883694,21.33,1
8.484375,-0.22078114613203553,17.82,1
8.5,-0.2112473945880989,13.75,1
8.515625,-0.20186829973607948,10.25,1
8.53125,-0.1696543228633965,7.98,1
8.546875,-0.17559058959865922,7.0,1
8.5625,-0.1286810119473879,6.94,1
8.578125,-0.12382132304235331,7.39,1
8.59375,-0.11111297700577376,8.04,1
8.609375,-0.10732349679856719,8.79,1
8.625,-0.09255430641057917,9.63,1
8.640625,-0.0880350442234026,10.65,1
8.65625,-0.09102207125259619,11.85,1
8.671875,-0.06924499881362212,13.0,1
8.6875,-0.07709088554032696,14.06,1
8.703125,-0.06202770178448414,14.63,1
8.71875,-0.07592207926100403,14.39,1
8.734375,-0.08734052302164008,13.14,1
8.75,-0.0790164687958859,10.85,1
8.765625,-0.08277814898784971,7.67,1
8.78125,-0.05215020996872666,3.89,1
8.796875,-0.04050637903689566,-0.17,1
8.8125,-0.048510961850749365,-4.14,1
8.828125,-0.0626880593324638,-7.65,1
8.84375,-0.07324984061269019,-10.36,1
8.859375,-0.06708609123525439,-11.85,1
8.875,-0.06387216020239327,-11.78,1
8.890625,-0.057058690487330664,-10.0,1
8.90625,-0.052755458537231334,-6.61,1
8.921875,-0.0590994880915282,-1.94,1
8.9375,-0.06568592665563219,3.48,1
8.953125,-0.06671824344406214,9.11,1
8.96875,-0.045630370867046625,14.41,1
8.984375,-0.06182213849255816,18.95,1
9.0,-0.049391524184306916,22.4,1
9.015625,-0.04598656817483622,24.62,1
9.03125,-0.03703206493585121,25.58,1
9.046875,-0.034587328043295854,25.35,1
9.0625,-0.021251272154945117,24.11,1
9.078125,-0.021253693158180244,22.04,1
9.09375,0.025083461604574024,19.34,1
9.109375,0.0764998021984384,16.2,1
9.125,0.02107978590477356,12.76,1
9.140625,-0.021352597979455,9.19,1
9.15625,-0.054329567043945336,5.59,1
9.171875,-0.036725288504166405,1.99,1
9.1875,-0.047619864603144546,-1.62,1
9.203125,-0.12923841505484224,-5.32,1
9.21875,-0.23479127391567617,-9.21,1
9.234375,1.252462548231073,-13.42,1
9.25,1.4704350161774213,-18.05,1
9.265625,0.2125445313959619,-23.15,1
9.28125,-0.11324847413623786,-28.65,1
9.296875,-0.26883165685698607,-34.19,1
9.3125,-0.2716282489275523,-39.17,1
9.328125,-0.2571679716729344,-42.79,1
9.34375,-0.23798844650847598,-44.38,1
9.359375,-0.1761505564233787,-43.62,1
9.375,-0.1763287113855545,-40.78,1
9.390625,-0.1396951519487976,-36.68,1
9.40625,-0.06615883098555032,-32.43,1
9.421875,-0.02799589925530517,-29.1,1
9.4375,0.016468328015586665,-27.26,1
9.453125,0.10975651146415566,-26.76,1
9.46875,0.16601343513537928,-26.71,1
9.484375,0.2548205830011966,-25.78,1
9.5,0.32191653273216236,-22.77,1
9.515625,0.29488780324618336,-17.08,1
9.53125,0.07487408242257337,-9.06,1
9.546875,-0.07967746999467355,0.09,1
9.5625,-0.20791457915158754,8.86,1
9.578125,-0.2959789725841282,15.93,1
9.59375,-0.275042443736948,20.64,1
9.609375,-0.26209690228461074,23.0,1
9.625,-0.23115607992977674,23.51,1
9.640625,-0.2152391466255791,22.75,1
9.65625,-0.19423581896636896,21.16,1
9.671875,-0.15972845138361305,19.04,1
9.6875,-0.16692325218544252,16.64,1
9.703125,-0.13832833984365903,14.24,1
9.71875,-0.1340153400591522,12.1,1
9.734375,-0.1349723955690624,10.34,1
9.75,-0.09905708396889797,8.84,1
9.765625,-0.11431483251020996,7.33,1
9.78125,-0.10547084313133387,5.56,1
9.796875,-0.10057540046189634,3.49,1
9.8125,-0.08148119595466141,1.27,1
9.828125,-0.0822806319792978,-0.86,1
9.84375,-0.0691641755473491,-2.75,1
9.859375,-0.05830772001275323,-4.41,1
9.875,-0.057166350959833426,-5.95,1
9.890625,-0.054551734017987255,-7.51,1
9.90625,-0.022656648017362016,-9.16,1
9.921875,-0.04643377552262403,-10.96,1
9.9375,-0.03473907641460502,-12.99,1
9.953125,-0.03127219931178587,-15.33,1
9.96875,-0.022589853511721884,-18.01,1
9.984375,-0.006427825068710647,-20.84,1
10.0,-0.011524188914413487,-23.39,1
10.015625,0.0009146605936270736,-25.08,1
10.03125,-0.007094160051986705,-25.37,1
10.046875,0.016937235420236535,-24.04,1
10.0625,0.022194029082557486,-21.25,1
10.078125,0.012897271963323844,-17.39,1
10.09375,0.03631284255156142,-12.93,1
10.109375,0.03307373098035051,-8.11,1
10.125,0.04614916886122099,-2.86,1
10.140625,0.05441154054707816,3.13,1
10.15625,0.07120469117247087,10.23,1
10.171875,0.06854381054128658,18.68,1
10.1875,0.07872607555788418,28.51,1
10.203125,0.16763615727177003,39.45,1
10.21875,0.09998300309664471,51.07,1
10.234375,0.05385600511642756,62.84,1
10.25,0.02474706668166945,74.29,1
10.265625,0.05722691478758364,85.11,1
10.28125,0.02385488694814792,95.22,1
10.296875,0.029554125027377358,104.75,1
10.3125,-0.2517737441789048,113.78,1
10.328125,0.8841486092687204,122.1,1
10.34375,1.6671001563815422,128.87,1
10.359375,0.5342400099826805,132.66,1
10.375,0.012209056956014961,131.67,1
10.390625,-0.13689246966708263,124.35,1
10.40625,-0.22179359120772948,110.05,1
10.421875,-0.1814380957103671,89.48,1
10.4375,-0.16185756865186662,64.66,1
10.453125,-0.1134654553579328,38.45,1
10.46875,-0.09147921903373987,13.66,1
10.484375,-0.04642687634892163,-7.65,1
10.5,-0.015710619620330348,-24.61,1
10.515625,0.03519913996436904,-37.3,1
10.53125,0.09614216500777836,-46.39,1
10.546875,0.15960169835890786,-52.57,1
10.5625,0.22431974632103663,-56.38,1
10.578125,0.31810042797208876,-58.31,1
10.59375,0.3840195236389947,-58.92,1
10.609375,0.35982284551901783,-59.0,1
10.625,0.19803805678795178,-59.35,1
10.640625,0.007710832560641886,-60.54,1
10.65625,-0.14610847514437134,-62.68,1
10.671875,-0.22138492660189293,-65.47,1
10.6875,-0.24000032082656816,-68.49,1
10.703125,-0.22483917549315582,-71.62,1
10.71875,-0.20239409493128468,-75.28,1
10.734375,-0.1982064791621245,-80.3,1
10.75,-0.15129870534316905,-87.61,1
10.765625,-0.14506426394015812,-97.86,1
10.78125,-0.11681210018546954,-111.05,1
10.796875,-0.11017435930286117,-126.3,1
10.8125,-0.08541816352683511,-141.85,1
10.828125,-0.08785715152434986,-155.15,1
10.84375,-0.07145524299324922,-163.31,1
10.859375,-0.07349546260918753,-163.71,1
10.875,-0.06715066323385606,-154.85,1
10.890625,-0.0664264457895702,-136.88,1
10.90625,-0.06679814894756249,-111.82,1
10.921875,-0.05720552739760156,-83.0,1
10.9375,-0.05066516145658632,-54.17,1
10.953125,-0.05065860793230811,-28.52,1
10.96875,-0.03131339267196693,-8.01,1
10.984375,-0.023801192161620237,6.79,1
11.0,-0.020020404736675535,16.39,1
11.015625,-0.015222106850132021,21.87,1
11.03125,-0.01145836785876272,24.44,1
11.046875,0.006765770656273532,25.12,1
11.0625,0.005003361762823208,24.68,1
11.078125,0.004868618475950735,23.65,1
11.09375,0.016988202358264124,22.24,1
11.109375,0.02277808769971767,20.38,1
11.125,0.02030993263435358,17.74,1
11.140625,0.0271629074614591,13.89,1
11.15625,0.027183837128102104,8.6,1
11.171875,0.029627159615224916,2.12,1
11.1875,0.025830289497183762,-4.53,1
11.203125,0.03748046072442986,-9.81,1
11.21875,0.036557335148888453,-12.0,1
11.234375,0.03750138931952419,-9.92,1
11.25,0.05363016835245347,-3.38,1
11.265625,0.03366106111456239,6.67,1
11.28125,0.10824836009165316,18.48,1
11.296875,0.12218649576796395,30.06,1
11.3125,0.06388780677921702,39.85,1
11.328125,0.016148064929687633,47.02,1
11.34375,0.020641890764924422,51.49,1
11.359375,-0.006544628457020499,53.76,1
11.375,0.031122779659117573,54.62,1
11.390625,-0.12427919932655648,54.92,1
11.40625,-0.06005983416887142,55.42,1
11.421875,1.4296055806413923,56.67,1
11.4375,1.245462588302698,58.92,1
11.453125,0.1318627086286664,62.07,1
11.46875,-0.05641714865086676,65.74,1
11.484375,-0.20486898640243803,69.42,1
11.5,-0.21151654436164494,72.56,1
11.515625,-0.20231126644023317,74.71,1
11.53125,-0.16263709644866148,75.53,1
11.546875,-0.12859148786241437,74.81,1
11.5625,-0.09502678141359401,72.54,1
11.578125,-0.051218406845014365,68.96,1
11.59375,-0.010761951062995245,64.63,1
11.609375,0.051066443412540255,60.36,1
11.625,0.10408514081077572,57.09,1
11.640625,0.18954137161093912,55.57,1
11.65625,0.2662764124363162,56.13,1
11.671875,0.3564607687676152,58.44,1
11.6875,0.40470890480523736,61.53,1
11.703125,0.32513889747248126,63.92,1
11.71875,0.12698487210873632,64.08,1
11.734375,-0.0779967101486677,60.85,1
11.75,-0.2109157211594572,53.8,1
11.765625,-0.26209522332891905,43.23,1
11.78125,-0.2513658568984091,29.97,1
11.796875,-0.25748988200605016,15.02,1
11.8125,-0.2290965357338162,-0.78,1
11.828125,-0.2037008548598055,-16.84,1
11.84375,-0.19080284095834735,-32.77,1
11.859375,-0.1763484355781175,-48.17,1
11.875,-0.163157815375236,-62.55,1
11.890625,-0.13969279628055786,-75.43,1
11.90625,-0.14231481697332124,-86.42,1
11.921875,-0.13782234376341804,-95.4,1
11.9375,-0.14329060580489547,-102.56,1
11.953125,-0.13543580980337783,-108.32,1
11.96875,-0.15435281799678569,-113.06,1
11.984375,-0.13208745625503426,-117.06,1
12.0,-0.1400435599623029,-120.31,1
12.015625,-0.11670384790933166,-122.64,1
12.03125,-0.11531335267075528,-123.81,1
12.046875,-0.10449223625181651,-123.61,1
12.0625,-0.08332278874888291,-121.88,1
12.078125,-0.07113936066502236,-118.44,1
12.09375,-0.07977934561273901,-112.95,1
12.109375,-0.04867556622255184,-104.96,1
12.125,-0.051008192412170486,-94.09,1
12.140625,-0.03248857263647463,-80.22,1
12.15625,-0.045209265434241974,-63.8,1
12.171875,-0.03794821061704541,-45.8,1
12.1875,-0.03407533418516799,-27.54,1
12.203125,-0.027198790901309847,-10.3,1
12.21875,-0.023069938732762044,4.98,1
12.234375,-0.003266373128211236,17.84,1
12.25,0.0006384613722114724,28.23,1
12.265625,0.0025319702361581596,36.29,1
12.28125,0.013475132623436897,42.24,1
12.296875,0.03492571474220563,46.37,1
12.3125,0.04587302912007986,49.0,1
12.328125,0.11537336242122008,50.57,1
12.34375,0.05725110560920186,51.47,1
12.359375,0.03249057262377488,51.97,1
12.375,-0.020398870827988285,52.09,1
12.390625,0.012040639637547658,51.64,1
12.40625,-0.02102229423610912,50.33,1
12.421875,0.03218962173578704,47.94,1
12.4375,-0.29964529968493925,44.44,1
12.453125,0.6868041944068626,40.05,1
12.46875,1.687195981117056,35.13,1
12.484375,0.5847009558801916,30.09,1
12.5,-0.025777259203644386,25.23,1
12.515625,-0.1699915161372837,20.71,1
12.53125,-0.27140678929496076,16.48,1
12.546875,-0.2447250202976217,12.35,1
12.5625,-0.2335447493933621,8.12,1
12.578125,-0.17840692831800103,3.64,1
12.59375,-0.16051554836949117,-1.09,1
12.609375,-0.10854717753773357,-5.91,1
12.625,-0.0768195869483748,-10.58,1
12.640625,-0.022683085347582725,-14.87,1
12.65625,0.025583622987227952,-18.62,1
12.671875,0.10063299512733352,-21.79,1
12.6875,0.17908864504763386,-24.46,1
12.703125,0.26854206456998686,-26.81,1
12.71875,0.35510845718378015,-29.1,1
12.734375,0.3343558914232566,-31.63,1
12.75,0.18436015377670015,-34.57,1
12.765625,-0.008518869659582385,-37.87,1
12.78125,-0.17188415969553947,-41.11,1
12.796875,-0.22528472902365854,-43.56,1
12.8125,-0.2579043688094835,-44.28,1
12.828125,-0.22668578012919674,-42.56,1
12.84375,-0.1945154794224806,-38.14,1
12.859375,-0.17754695013217522,-31.39,1
12.875,-0.15148579831541462,-23.23,1
12.890625,-0.12075082388422512,-14.84,1
12.90625,-0.11246021136098229,-7.29,1
12.921875,-0.09378642596638515,-1.31,1
12.9375,-0.07871906579559279,2.86,1
12.953125,-0.06911559602465266,5.35,1
12.96875,-0.06771546036197662,6.56,1
12.984375,-0.06454505406253232,6.92,1
13.0,-0.05899016619235042,6.85,1
13.015625,-0.060716062711729725,6.65,1
13.03125,-0.053796338167310234,6.52,1
13.046875,-0.037128840963372656,6.55,1
13.0625,-0.03303787250339591,6.74,1
13.078125,-0.03680590773944483,7.08,1
13.09375,-0.014663935316296044,7.54,1
13.109375,-0.009040691722895868,8.17,1
13.125,-0.00013242743831253572,8.99,1
13.140625,-0.0037050968063498287,10.03,1
13.15625,-0.002175642143848512,11.25,1
13.171875,0.006457182405817754,12.6,1
13.1875,0.007260115095460113,13.97,1
13.203125,0.006130165475106404,15.32,1
13.21875,0.007109382784082024,16.64,1
13.234375,0.009024301863050227,17.9,1
13.25,0.0158100234695905,19.03,1
13.265625,0.006195416713864504,19.85,1
13.28125,0.014194794917012076,20.13,1
13.296875,0.020269856625767278,19.63,1
13.3125,0.007657544508637387,18.26,1
13.328125,0.018258225690974114,16.09,1
13.34375,0.025577397536710178,13.31,1
13.359375,0.013393290313919094,10.26,1
13.375,0.0159932454273384,7.24,1
13.390625,0.006911220859128351,4.51,1
13.40625,0.014019217035265865,2.22,1
13.421875,0.027562268405020816,0.4,1
13.4375,0.030747693796666278,-1.03,1
13.453125,0.04263982712159035,-2.19,1
13.46875,0.1328114584959955,-3.17,1
13.484375,0.06018114484161414,-4.03,1
13.5,0.030499577428463348,-4.78,1
13.515625,-0.01768502299546004,-5.4,1
13.53125,0.014227589329611712,-5.94,1
13.546875,-0.01538548246195089,-6.48,1
13.5625,-0.002248164191533099,-7.11,1
13.578125,-0.2956784393303697,-7.91,1
13.59375,0.899169059694067,-8.91,1
13.609375,1.596019234543135,-10.06,1
13.625,0.4797771123659436,-11.3,1
13.640625,-0.0171654289114929,-12.54,1
13.65625,-0.1856217581304086,-13.69,1
13.671875,-0.24924427789521292,-14.64,1
13.6875,-0.23014991852826436,-15.32,1
13.703125,-0.19789880421427938,-15.69,1
13.71875,-0.15692500583236926,-15.83,1
13.734375,-0.13148471633656347,-15.88,1
13.75,-0.08933099682859112,-16.08,1
13.765625,-0.05098769733016115,-16.64,1
13.78125,0.0001620526194858509,-17.68,1
13.796875,0.06745022328881793,-19.17,1
13.8125,0.12862270318477115,-20.85,1
13.828125,0.2138589609826909,-22.25,1
13.84375,0.2972467446881947,-22.79,1
13.859375,0.3764609804177199,-21.95,1
13.875,0.3528828047632908,-19.45,1
13.890625,0.2019593775930268,-15.4,1
13.90625,-4.8058002641502115e-05,-10.28,1
13.921875,-0.1599572567851089,-4.82,1
13.9375,-0.22687434861394484,0.32,1
13.953125,-0.24667672878873803,4.65,1
13.96875,-0.23597276384084523,8.0,1
13.984375,-0.2145589291022356,10.42,1
14.0,-0.2000094813173413,12.05,1
14.015625,-0.1745088508703854,13.03,1
14.03125,-0.1629239738457418,13.45,1
14.046875,-0.1430424482565561,13.51,1
14.0625,-0.1359825923475567,13.4,1
14.078125,-0.1153522034221635,13.35,1
14.09375,-0.1008051167296758,13.49,1
14.109375,-0.09878230732067515,13.83,1
14.125,-0.10406288932934284,14.28,1
14.140625,-0.09491202737691377,14.72,1
14.15625,-0.0947343830430246,15.11,1
14.171875,-0.08495639287752804,15.48,1
14.1875,-0.08510906949117633,15.94,1
14.203125,-0.0737671455553286,16.61,1
14.21875,-0.06278363450965602,17.54,1
14.234375,-0.07871642119756674,18.67,1
14.25,-0.03856591778043346,19.87,1
14.265625,-0.05126217253736765,21.0,1
14.28125,-0.035843016647169254,21.9,1
14.296875,-0.044828898851567774,22.48,1
14.3125,-0.025246393026476705,22.69,1
14.328125,-0.02925075028195222,22.51,1
14.34375,-0.02594764953084284,21.93,1
14.359375,-0.013300420460501906,20.97,1
14.375,-0.006361034932592488,19.7,1
14.390625,-0.012628030276424172,18.23,1
14.40625,0.01072321212573111,16.68,1
14.421875,0.0035036194357192466,15.21,1
14.4375,0.014176948994177232,13.9,1
14.453125,0.014648598725275162,12.76,1
14.46875,0.025132458996772872,11.75,1
14.484375,0.013277098636699805,10.82,1
14.5,0.02679813674922447,9.94,1
14.515625,0.036929232462370565,9.18,1
14.53125,0.04115229284612245,8.63,1
14.546875,0.03124649922217141,8.36,1
14.5625,0.04171228177036272,8.35,1
14.578125,0.054654227755459715,8.46,1
14.59375,0.043114252926596784,8.51,1
14.609375,0.03907168872863603,8.28,1
14.625,0.061294637565907036,7.62,1
14.640625,0.051233875029723625,6.54,1
14.65625,0.07374527347649316,5.16,1
14.671875,0.13781801724183818,3.69,1
14.6875,0.0878149856448668,2.31,1
14.703125,0.04427849999497991,1.14,1
14.71875,0.012716307702527938,0.12,1
14.734375,0.02605111763079611,-0.89,1
14.75,0.014462290431534554,-2.05,1
14.765625,0.01895046774141642,-3.45,1
14.78125,-0.25470018645283193,-5.08,1
14.796875,0.9137520134545819,-6.84,1
14.8125,1.5471433828910335,-8.58,1
14.828125,0.3995879186552271,-10.21,1
14.84375,0.00778182904083263,-11.69,1
14.859375,-0.1457700930082896,-13.11,1
14.875,-0.2122024919299608,-14.59,1
14.890625,-0.16827323251575532,-16.29,1
14.90625,-0.16450624935792832,-18.36,1
14.921875,-0.1173168665520942,-20.84,1
14.9375,-0.11478652597181045,-23.58,1
14.953125,-0.038219567203212734,-26.19,1
14.96875,-0.02708630112203797,-28.12,1
14.984375,0.028899101751030432,-28.76,1
15.0,0.08124212784652224,-27.62,1
15.015625,0.15845594384311232,-24.53,1
15.03125,0.27632056502226765,-19.69,1
15.046875,0.33188190001616213,-13.64,1
15.0625,0.36224300676781895,-7.09,1
15.078125,0.41087446906258257,-0.8,1
15.09375,0.20053015682011618,4.66,1
15.109375,0.012574308440924997,8.91,1
15.125,-0.19045909198856545,11.81,1
15.140625,-0.2188748529905906,13.45,1
15.15625,-0.258937926142773,14.1,1
15.171875,-0.2601221301685213,14.15,1
15.1875,-0.20944629517801452,13.98,1
15.203125,-0.1891103486423931,13.89,1
15.21875,-0.15110338368765314,14.0,1
15.234375,-0.14731671182868677,14.26,1
15.25,-0.10153529143347383,14.56,1
15.265625,-0.11613632700323386,14.8,1
15.28125,-0.10238601523031382,15.01,1
15.296875,-0.09039358101243267,15.32,1
15.3125,-0.09596734312534494,15.83,1
15.328125,-0.09983112614517035,16.54,1
15.34375,-0.10735771821010681,17.3,1
15.359375,-0.10032077855891164,17.88,1
15.375,-0.040225963594296116,18.13,1
15.390625,-0.09584000467535703,18.05,1
15.40625,-0.07902387230001623,17.82,1
15.421875,-0.06536455667957257,17.65,1
15.4375,-0.0742322578153386,17.69,1
15.453125,-0.02708793320429454,17.92,1
15.46875,-0.017576306015706658,18.18,1
15.484375,-0.016500689757605075,18.23,1
15.5,-0.031226333010600887,17.94,1
15.515625,-0.018398835745947164,17.33,1
15.53125,0.0040552724462839,16.5,1
15.546875,0.021081789327625184,15.59,1
15.5625,-0.002344828656261955,14.7,1
15.578125,0.021974989265393735,13.84,1
15.59375,-0.0068795247246435775,12.97,1
15.609375,-0.0014332281013693959,12.1,1
15.625,0.030121973505797643,11.27,1
15.640625,0.014672495560146291,10.53,1
15.65625,0.024810131792137792,9.91,1
15.671875,0.04028277655300307,9.36,1
15.6875,0.11265037439261545,8.79,1
15.703125,0.05600573798075928,8.15,1
15.71875,0.015003652488485389,7.42,1
15.734375,-0.03149068341003957,6.71,1
15.75,-0.016799681008043795,6.14,1
15.765625,-0.03235190433807176,5.78,1
15.78125,-0.005638946527817573,5.58,1
15.796875,-0.293748375655697,5.41,1
15.8125,0.6525461770270847,5.07,1
15.828125,1.5760453901530933,4.46,1
15.84375,0.38665354485839293,3.58,1
15.859375,-0.10686838642374206,2.52,1
15.875,-0.12386708727395018,1.38,1
15.890625,-0.2257040877207591,0.27,1
15.90625,-0.19181899690973714,-0.79,1
15.921875,-0.1715047188549411,-1.82,1
15.9375,-0.1509633120076194,-2.88,1
15.953125,-0.08517777294806848,-4.02,1
15.96875,-0.07508356656372563,-5.27,1
15.984375,-0.0328886878543503,-6.57,1
16.0,0.02838334053793098,-7.79,1
16.015625,0.08557818195996847,-8.76,1
16.03125,0.16951909701449416,-9.35,1
16.046875,0.2640116746467913,-9.55,1
16.0625,0.3582038707438383,-9.51,1
16.078125,0.4417788029759935,-9.54,1
16.09375,0.3862275511120186,-10.0,1
16.109375,0.18804489636859745,-11.28,1
16.125,-0.060632707005969816,-13.7,1
16.140625,-0.22246467264904915,-17.54,1
16.15625,-0.29535208226141474,-22.91,1
16.171875,-0.30021902370749776,-29.61,1
16.1875,-0.3194092105000168,-36.99,1
16.203125,-0.28544680376831644,-43.91,1
16.21875,-0.2746180630393902,-49.11,1
16.234375,-0.25547230438197194,-51.59,1
16.25,-0.22494349820966225,-51.09,1
16.265625,-0.20208184597730988,-48.22,1
16.28125,-0.18781533489183674,-44.26,1
16.296875,-0.16666414269808413,-40.66,1
16.3125,-0.15944213683376793,-38.59,1
16.328125,-0.15355876914572159,-38.63,1
16.34375,-0.14729355897341317,-40.79,1
16.359375,-0.1458804498844781,-44.6,1
16.375,-0.1276237712727955,-49.37,1
16.390625,-0.12596334049332722,-54.23,1
16.40625,-0.10711448377721362,-58.22,1
16.421875,-0.11681699058939862,-60.47,1
16.4375,-0.11489854916408275,-60.36,1
16.453125,-0.10335739995167997,-57.64,1
16.46875,-0.09226966520803756,-52.53,1
16.484375,-0.09109431510484793,-45.55,1
16.5,-0.07924382850066333,-37.38,1
16.515625,-0.07628045974089241,-28.66,1
16.53125,-0.056558705523776315,-19.95,1
16.546875,-0.05909157705376676,-11.61,1
16.5625,-0.04911085353348113,-3.76,1
16.578125,-0.04665488053369863,3.81,1
16.59375,-0.04034875509975383,11.67,1
16.609375,-0.03043769430063815,20.54,1
16.625,-0.02967849859912236,31.0,1
16.640625,-0.03450508042076711,43.17,1
16.65625,-0.015245625822251157,56.51,1
16.671875,-0.02700703610480739,70.05,1
16.6875,0.06132915631974068,82.68,1
16.703125,0.04475764338229198,93.51,1
16.71875,0.001175202921557995,102.09,1
16.734375,-0.05124843080592635,108.34,1
16.75,-0.036215032188580756,112.38,1
16.765625,-0.04875633256340579,114.38,1
16.78125,-0.02322591515651081,114.48,1
16.796875,-0.15752489234759848,112.79,1
16.8125,-0.14559093524176792,109.55,1
16.828125,1.377292291884203,105.1,1
16.84375,1.3186919077363235,99.87,1
16.859375,0.13709491767997084,94.25,1
16.875,-0.11082972379560516,88.55,1
16.890625,-0.2778755633724364,83.07,1
16.90625,-0.2878321717703556,78.02,1
16.921875,-0.2714955646044829,73.48,1
16.9375,-0.23821041764994785,69.42,1
16.953125,-0.21950507997858146,65.72,1
16.96875,-0.17985538164459325,62.18,1
16.984375,-0.13963143336882905,58.53,1
17.0,-0.0964876680980979,54.49,1
17.015625,-0.046196085289002584,49.86,1
17.03125,0.017610912109540394,44.63,1
17.046875,0.08993103155804917,38.9,1
17.0625,0.1901401270033412,32.75,1
17.078125,0.2764594090954126,26.14,1
17.09375,0.32032793807460963,18.98,1
17.109375,0.20854624237281832,11.19,1
17.125,-0.01415890106224492,2.66,1
17.140625,-0.20931581195347884,-6.61,1
17.15625,-0.3487495750877141,-16.47,1
17.171875,-0.38759159744893373,-26.27,1
17.1875,-0.39231398110704774,-35.16,1
17.203125,-0.37982587836449566,-42.33,1
17.21875,-0.3618198519811614,-47.19,1
17.234375,-0.3654492310407503,-49.45,1
17.25,-0.33915000405923773,-49.18,1
17.265625,-0.3057099436532732,-46.89,1
17.28125,-0.2966088750912263,-43.45,1
17.296875,-0.2794944356404294,-39.84,1
17.3125,-0.2634981644452847,-36.62,1
17.328125,-0.24235052631250906,-34.01,1
17.34375,-0.2220458201521035,-31.89,1
17.359375,-0.20749721361522883,-29.96,1
17.375,-0.19975095215984948,-27.67,1
17.390625,-0.2025604330042406,-24.47,1
17.40625,-0.1938042714898987,-20.03,1
17.421875,-0.1868776656927744,-14.4,1
17.4375,-0.16948323108745475,-9.8,1
17.453125,-0.1660480298322868,-7.98,1
17.46875,-0.1542669723506549,-9.32,1
17.484375,-0.13103483079556674,-12.78,1
17.5,-0.13449545416153522,-17.11,1
17.515625,-0.11503181074143845,-21.52,1
17.53125,-0.11259267569568057,-25.64,1
17.546875,-0.1083401519971583,-29.16,1
17.5625,-0.11574745525204834,-31.73,1
17.578125,-0.08507823628166519,-33.2,1
17.59375,-0.07853367429890934,-33.19,1
17.609375,-0.09161483284809618,-31.47,1
17.625,-0.06843345555984903,-28.43,1
17.640625,-0.060431426758089116,-25.07,1
17.65625,-0.06906108089367541,-22.54,1
17.671875,-0.0560374174330203,-21.66,1
17.6875,-0.03880027950254699,-22.63,1
17.703125,-0.0471952183538888,-25.07,1
17.71875,0.004083473295775084,-27.65,1
17.734375,0.05053970119708137,-28.88,1
17.75,-0.021244846302200443,-27.8,1
17.765625,-0.04791403949735143,-24.42,1
17.78125,-0.0685469445871276,-19.67,1
17.796875,-0.06434473616068224,-14.8,1
17.8125,-0.05964998216592305,-10.79,1
17.828125,-0.05496096794329293,-8.17,1
17.84375,-0.3382848090158051,-7.01,1
17.859375,0.8975288395696741,-7.27,1
17.875,1.6541589332362228,-8.87,1
17.890625,0.3890683863037409,-11.84,1
17.90625,-0.1037633460918491,-16.19,1
17.921875,-0.23335766297739358,-21.67,1
17.9375,-0.2904962238128272,-27.65,1
17.953125,-0.2587790054063893,-33.17,1
17.96875,-0.25313575048900666,-37.39,1
17.984375,-0.2131498672964899,-39.86,1
18.0,-0.17435393522217565,-40.65,1
18.015625,-0.1306580597147228,-40.16,1
18.03125,-0.07292589935917701,-38.75,1
18.046875,-0.027831570879488808,-36.64,1
18.0625,0.03679030159224924,-33.76,1
18.078125,0.12508178892152477,-30.01,1
18.09375,0.22483911510528498,-25.43,1
18.109375,0.3205506298798308,-20.43,1
18.125,0.4048410339487218,-15.77,1
18.140625,0.3319631969441155,-12.29,1
18.15625,0.1700327511813473,-10.57,1
18.171875,-0.05786275921701732,-10.65,1
18.1875,-0.2103084301722333,-12.0,1
18.203125,-0.2552670264761522,-13.64,1
18.21875,-0.27332490662003667,-14.47,1
18.234375,-0.25695056126554405,-13.63,1
18.25,-0.22431588909941533,-10.74,1
18.265625,-0.2139274545513397,-6.01,1
18.28125,-0.18480396699123403,-0.08,1
18.296875,-0.17661857593588076,6.2,1
18.3125,-0.1536912460726302,12.08,1
18.328125,-0.11402773301197147,17.07,1
18.34375,-0.09866114852454105,21.03,1
18.359375,-0.08204547669852294,24.01,1
18.375,-0.06424145988221348,26.19,1
18.390625,-0.05178652235080861,27.72,1
18.40625,-0.04187237517313486,28.73,1
18.421875,-0.026652932418259202,29.39,1
18.4375,-0.021270653578686263,29.91,1
18.453125,-0.0334402057867283,30.58,1
18.46875,-0.013594992701227541,31.64,1
18.484375,-0.003946700735104107,33.21,1
18.5,-0.00515044602422158,35.25,1
18.515625,0.00798581322165509,37.6,1
18.53125,0.016687884912236283,40.04,1
18.546875,0.008088597756092167,42.4,1
18.5625,0.015038499243580328,44.56,1
18.578125,0.03300344063202036,46.4,1
18.59375,0.016106990408151688,47.79,1
18.609375,0.04017068420307757,48.63,1
18.625,0.022419453343664263,48.92,1
18.640625,0.042808203492025604,48.78,1
18.65625,0.033715544380380595,48.4,1
18.671875,0.04318941204129609,47.94,1
18.6875,0.03713516685166551,47.35,1
18.703125,0.0513579354424176,46.4,1
18.71875,0.06411665322843346,44.77,1
18.734375,0.05251064739529724,42.35,1
18.75,0.06554137736437052,39.35,1
18.765625,0.05005881205663098,36.3,1
18.78125,0.07505194423178782,33.77,1
18.796875,0.0793706757062805,32.06,1
18.8125,0.07590061639372767,31.0,1
18.828125,0.03922276580092259,30.02,1
18.84375,0.06891426269720767,28.36,1
18.859375,0.06493287632847762,25.42,1
18.875,0.0611798350467846,21.04,1
18.890625,0.07771597343995655,15.4,1
18.90625,0.14446870554215083,9.01,1
18.921875,0.1404589782391703,2.42,1
18.9375,0.10088145303976209,-4.02,1
18.953125,0.07710666383108006,-10.2,1
18.96875,0.03935916713769138,-16.23,1
18.984375,0.04156564838656048,-22.33,1
19.0,0.038993348822053055,-28.65,1
19.015625,0.008712144218157742,-35.14,1
19.03125,-0.18203073146427148,-41.59,1
19.046875,1.1461215377906813,-47.67,1
19.0625,1.5665424741106488,-53.11,1
19.078125,0.37978112864475294,-57.76,1
19.09375,-0.01599828310084848,-61.63,1
19.109375,-0.16778055799045294,-64.77,1
19.125,-0.2059670022282179,-67.22,1
19.140625,-0.1971879318821193,-68.95,1
19.15625,-0.15322456048666538,-69.91,1
19.171875,-0.11646978986146128,-70.15,1
19.1875,-0.0621680771030718,-69.81,1
19.203125,-0.03656307173230033,-69.05,1
19.21875,-0.012671557390740653,-67.96,1
19.234375,0.05987936921371796,-66.4,1
19.25,0.13419032133915437,-63.97,1
19.265625,0.20855952148101806,-60.11,1
19.28125,0.3212840371390342,-54.37,1
19.296875,0.37937663354639684,-46.56,1
19.3125,0.4880802565292732,-37.04,1
19.328125,0.4418140218645179,-26.39,1
19.34375,0.26153943615465297,-15.29,1
19.359375,0.002064172828045513,-4.49,1
19.375,-0.13119995778641014,5.38,1
19.390625,-0.18092604103620538,13.8,1
19.40625,-0.21431352461756945,20.48,1
19.421875,-0.175438408641073,25.26,1
19.4375,-0.20370390605418562,28.26,1
19.453125,-0.16396043572201288,29.57,1
19.46875,-0.1464955019536173,29.72,1
19.484375,-0.12226694576148384,29.57,1
19.5,-0.1011729316445793,29.82,1
19.515625,-0.09066109379771801,30.66,1
19.53125,-0.09770695707264507,31.68,1
19.546875,-0.06849763577154613,32.1,1
19.5625,-0.05573400322689984,31.11,1
19.578125,-0.05392770591365333,28.59,1
19.59375,-0.038685964477356276,24.48,1
19.609375,-0.06445152232064681,20.26,1
19.625,-0.042113994867882136,17.9,1
19.640625,-0.07195879242522203,18.42,1
19.65625,-0.025910681465860043,21.47,1
19.671875,-0.03443533431251331,25.91,1
19.6875,-0.02829231956603293,30.62,1
19.703125,-0.012208438376520582,34.33,1
19.71875,-0.0166101118997536,35.37,1
19.734375,-0.003179726111775875,31.6,1
19.75,-0.0007927835235701245,21.05,1
19.765625,0.009781547161492137,3.68,1
19.78125,0.013255296032300351,-18.06,1
19.796875,0.020733401355979664,-39.62,1
19.8125,0.01102482812436298,-55.82,1
19.828125,0.027097513621197927,-62.68,1
19.84375,0.020965500680312665,-59.32,1
19.859375,0.03758487968336546,-44.26,1
19.875,0.03759147183495866,-21.82,1
19.890625,0.03924290494777145,1.27,1
19.90625,0.03899533735133361,19.77,1
19.921875,0.049196153577428056,32.01,1
19.9375,0.06556350214125103,39.28,1
19.953125,0.06249407599740336,43.64,1
19.96875,0.05368151165993325,47.59,1
19.984375,0.06270164652934436,51.07,1
20.0,0.06764896916217228,52.91,1
20.015625,0.08420925575008838,51.68,1
20.03125,0.04538423778274063,47.21,1
20.046875,0.06344715522059731,40.53,1
20.0625,0.049659533186863405,32.9,1
20.078125,0.07782892954215365,25.17,1
20.09375,0.09300531611612416,16.97,1
20.109375,0.07212193797406943,8.67,1
20.125,0.05689765111389114,0.78,1
20.140625,0.08040779090807623,-6.83,1
20.15625,0.09598695593719006,-15.24,1
20.171875,0.18142760184032145,-25.4,1
20.1875,0.14362342005159726,-37.54,1
20.203125,0.05987442977797574,-51.28,1
20.21875,0.045250197494437316,-65.84,1
20.234375,0.06686626114135105,-80.18,1
20.25,0.02047352058287758,-92.97,1
20.265625,0.09717456215082292,-99.32,1
20.28125,-0.22831765042511049,-95.9,1
20.296875,0.32698992741337063,-83.56,1
20.3125,1.6422410902792806,-66.55,1
20.328125,0.9048289615577674,-49.02,1
20.34375,0.03804926211435346,-32.81,1
20.359375,-0.12775332788146615,-17.95,1
20.375,-0.23734616738973513,-4.16,1
20.390625,-0.21544794723914368,8.61,1
20.40625,-0.20400527202620947,19.93,1
20.421875,-0.15403233066596833,28.92,1
20.4375,-0.13322858543603475,35.06,1
20.453125,-0.09333292216923618,38.8,1
20.46875,-0.03447087289072076,41.36,1
20.484375,-0.00894103631188232,43.78,1
20.5,0.05892690722446047,46.85,1
20.515625,0.11633505657066578,49.82,1
20.53125,0.2280783558136279,51.84,1
20.546875,0.2963792148934083,52.31,1
20.5625,0.3897095515107059,50.8,1
20.578125,0.4147614887898886,47.22,1
20.59375,0.31027406447901196,41.97,1
20.609375,0.08206474552999626,36.02,1
20.625,-0.1288484924565803,30.51,1
20.640625,-0.24338142702811175,26.31,1
20.65625,-0.26661680758949113,23.7,1
20.671875,-0.2816808697588255,22.52,1
20.6875,-0.27015630216786196,22.28,1
20.703125,-0.2535452079737627,21.98,1
20.71875,-0.23596278300256382,20.6,1
20.734375,-0.2045054475122015,17.08,1
20.75,-0.18762699062716937,11.44,1
20.765625,-0.14199435510621408,4.47,1
20.78125,-0.13789758616521847,-2.58,1
20.796875,-0.15999460653185288,-8.64,1
20.8125,-0.11990072302425528,-12.98,1
20.828125,-0.10067589929004415,-15.32,1
20.84375,-0.09589160061595355,-15.93,1
20.859375,-0.090271567169762,-15.54,1
20.875,-0.1056747944852928,-15.39,1
20.890625,-0.08827885114983283,-16.38,1
20.90625,-0.08678675992164217,-18.76,1
20.921875,-0.08089798305890358,-22.13,1
20.9375,-0.06263469249023375,-25.85,1
20.953125,-0.057131492170388196,-29.32,1
20.96875,-0.0861517984042214,-32.06,1
20.984375,-0.043592082127758114,-33.85,1
21.0,-0.059973800942537576,-32.44,1
21.015625,-0.042127153770185825,-27.24,1
21.03125,-0.0317627583946927,-19.65,1
21.046875,-0.016586323963741836,-12.13,1
21.0625,-0.029281177265411778,-6.25,1
21.078125,-0.0407305653532955,-2.29,1
21.09375,-0.017977039993380343,0.14,1
21.109375,-0.024266650303472543,0.93,1
21.125,0.01201302581270133,0.74,1
21.140625,-0.024910728164515922,0.02,1
21.15625,-0.020654161322332477,-1.35,1
21.171875,-0.0072504234396926605,-3.41,1
21.1875,-0.014291546908916226,-6.0,1
21.203125,0.0012805769541440399,-8.77,1
21.21875,-0.028693252154906115,-10.66,1
21.234375,0.003513890514967123,-11.37,1
21.25,-0.006160361106959452,-11.02,1
21.265625,0.01888917137036877,-9.78,1
21.28125,-0.010853701024391094,-7.84,1
21.296875,0.008033603678461265,-5.64,1
21.3125,0.02312159303138421,-3.38,1
21.328125,-0.007906589917761117,-1.05,1
21.34375,0.007679012387192816,1.81,1
21.359375,0.015472408717759133,5.52,1
21.375,0.004866797405070562,10.05,1
21.390625,0.025079697405521992,15.03,1
21.40625,0.03640837534010766,19.91,1
21.421875,0.07763558966011531,24.07,1
21.4375,0.09137401212983505,26.7,1
21.453125,0.018679015062585746,27.2,1
21.46875,0.0016275039773577932,25.0,1
21.484375,-0.008526092223819861,20.36,1
21.5,0.004674054029249514,14.14,1
21.515625,-0.05763322786303246,7.46,1
21.53125,0.002977205842657475,1.12,1
21.546875,-0.24315696843761556,-5.35,1
21.5625,1.0213317713205758,-12.13,1
21.578125,1.5513943262834817,-19.37,1
21.59375,0.24841822121484874,-27.09,1
21.609375,-0.05656610120205401,-35.81,1
21.625,-0.12070745617296906,-44.21,1
21.640625,-0.2343524476014298,-51.32,1
21.65625,-0.17979421420224082,-56.31,1
21.671875,-0.14017416839335495,-58.65,1
21.6875,-0.13162330628478505,-58.14,1
21.703125,-0.08055290605705545,-54.69,1
21.71875,-0.06392484954741613,-48.51,1
21.734375,0.022650721366411386,-37.44,1
21.75,0.08448876967199803,-21.88,1
21.765625,0.1487640276577838,-4.17,1
21.78125,0.19977156292709472,12.36,1
21.796875,0.2905957545152461,25.48,1
21.8125,0.4430152346862537,34.61,1
21.828125,0.526994592683242,40.34,1
21.84375,0.527738825174945,43.85,1
21.859375,0.21782778706874523,46.11,1
21.875,0.07706551106757571,47.62,1
21.890625,-0.17962897895074892,48.03,1
21.90625,-0.2807617006292875,47.92,1
21.921875,-0.3103318248896847,46.87,1
21.9375,-0.28300425639110227,44.73,1
21.953125,-0.29534392750214167,41.59,1
21.96875,-0.23672441553676582,37.68,1
21.984375,-0.22849120672353043,33.19,1
22.0,-0.19792182825762478,28.11,1
22.015625,-0.16004422402992827,22.35,1
22.03125,-0.1503178697157302,15.66,1
22.046875,-0.134921364733209,8.22,1
22.0625,-0.09082974012354865,0.3,1
22.078125,-0.10066142154049004,-7.85,1
22.09375,-0.11912546828328979,-15.81,1
22.109375,-0.08639938949353751,-23.24,1
22.125,-0.08382489891921405,-29.78,1
22.140625,-0.08241125445155806,-35.16,1
22.15625,-0.07740973753613027,-39.15,1
22.171875,-0.06459290702668838,-41.89,1
22.1875,-0.055762989589780786,-43.6,1
22.203125,-0.04514054119703571,-42.71,1
22.21875,-0.05763285815035912,-39.08,1
22.234375,-0.05576760367920465,-33.96,1
22.25,-0.04205090215838128,-28.63,1
22.265625,-0.033501814183967006,-23.29,1
22.28125,-0.03419166017686187,-17.26,1
22.296875,-0.03707902761182825,-10.08,1
22.3125,-0.016071533588635462,-2.22,1
22.328125,-0.009303974348340856,5.11,1
22.34375,-0.008133312274859682,10.44,1
22.359375,-0.010420836419687886,12.54,1
22.375,-9.890141792503423e-05,11.51,1
22.390625,0.028814679691077774,8.88,1
22.40625,0.013257932072959727,6.93,1
22.421875,0.07954937748628277,7.66,1
22.4375,0.10664144462639852,11.93,1
22.453125,0.03088409870091341,19.07,1
22.46875,0.009348884295098827,27.3,1
22.484375,-0.029796188583091656,34.81,1
22.5,0.011727267512287674,39.64,1
22.515625,-0.03766318473115455,41.12,1
22.53125,0.03026153808073356,39.79,1
22.546875,-0.2677610024863434,36.7,1
22.5625,0.45178076419927615,32.6,1
22.578125,1.6608127855491557,27.57,1
22.59375,0.7012844528389177,21.28,1
22.609375,-0.03749558088757705,13.44,1
22.625,-0.10928070378300887,4.15,1
22.640625,-0.24287710077057564,-6.01,1
22.65625,-0.18962449338731813,-15.47,1
22.671875,-0.19492473630927504,-22.18,1
22.6875,-0.1480807430224203,-24.58,1
22.703125,-0.1231653559497694,-22.3,1
22.71875,-0.09028114710200998,-16.24,1
22.734375,-0.0541629107885379,-8.11,1
22.75,0.008984471604043516,0.2,1
22.765625,0.05849298436006441,7.21,1
22.78125,0.13580365087592933,11.24,1
22.796875,0.22522181543370703,11.56,1
22.8125,0.33588496699860626,8.39,1
22.828125,0.4291015291181597,2.45,1
22.84375,0.4441654597879055,-5.15,1
22.859375,0.29452554769356654,-12.92,1
22.875,0.051444671020133795,-18.76,1
22.890625,-0.16476871063702794,-19.45,1
22.90625,-0.27182928059646466,-12.74,1
22.921875,-0.3152325015081643,-0.12,1
22.9375,-0.30782779659292664,13.94,1
22.953125,-0.2779236318721467,24.98,1
22.96875,-0.26153917484126726,30.57,1
22.984375,-0.24287826460278808,30.56,1
23.0,-0.2077124669796384,26.32,1
23.015625,-0.20816534921855862,19.84,1
23.03125,-0.16420471853150398,12.78,1
23.046875,-0.14919848104128552,5.77,1
23.0625,-0.14201541816580499,-1.23,1
23.078125,-0.12632401033800478,-8.25,1
23.09375,-0.09826131493037984,-14.75,1
23.109375,-0.08955835589661772,-19.92,1
23.125,-0.09089279998113174,-23.24,1
23.140625,-0.08663623753765655,-24.85,1
23.15625,-0.07309950490974274,-25.22,1
23.171875,-0.06337031779513344,-24.95,1
23.1875,-0.06859620661715818,-24.61,1
23.203125,-0.04643029910277802,-24.49,1
23.21875,-0.033880018084749094,-24.24,1
23.234375,-0.02375388933076708,-23.12,1
23.25,-0.022596376913125254,-20.56,1
23.265625,-0.020436321686926537,-15.63,1
23.28125,-0.011303862525347314,-8.86,1
23.296875,-0.009367832960645915,-1.45,1
23.3125,0.004620413690421736,5.23,1
23.328125,-0.002075463902577007,9.96,1
23.34375,0.013406921649874635,12.16,1
23.359375,0.01279648578809694,12.1,1
23.375,0.023209600023950436,10.72,1
23.390625,0.03694491951098363,9.04,1
23.40625,0.03358398591040334,7.72,1
23.421875,0.029517991335383,6.87,1
23.4375,0.03962041516133146,6.43,1
23.453125,0.046545218369826946,6.38,1
23.46875,0.06228456593981692,6.81,1
23.484375,0.13481731025817587,7.9,1
23.5,0.09461763150271847,9.77,1
23.515625,0.04627720571635327,12.41,1
23.53125,0.0033278383679893908,15.47,1
23.546875,-0.00312058237921139,18.36,1
23.5625,0.0008501489827889408,20.41,1
23.578125,0.004910696044404467,21.27,1
23.59375,-0.02212843784896305,20.9,1
23.609375,-0.21943168701312463,19.47,1
23.625,1.0149307685279625,17.16,1
23.640625,1.521139492534154,14.15,1
23.65625,0.29431024079523027,10.6,1
23.671875,-0.06168083414955571,6.77,1
23.6875,-0.1731477938812037,3.01,1
23.703125,-0.24556367779187233,-0.36,1
23.71875,-0.2064498846529384,-3.11,1
23.734375,-0.19103498398066202,-5.23,1
23.75,-0.1505293475662032,-6.91,1
23.765625,-0.11670136259315045,-8.43,1
23.78125,-0.08185926726116012,-9.99,1
23.796875,-0.031551272804776424,-11.53,1
23.8125,0.02219628143095239,-12.91,1
23.828125,0.08724142220792727,-14.04,1
23.84375,0.18198955527985178,-15.16,1
23.859375,0.27027217601057707,-16.72,1
23.875,0.39116691355777494,-19.24,1
23.890625,0.47691876807989136,-22.95,1
23.90625,0.4441437061760403,-27.62,1
23.921875,0.2505257944345668,-32.49,1
23.9375,0.009607134528194209,-36.46,1
23.953125,-0.20867461702767579,-38.44,1
23.96875,-0.30172827227819854,-37.74,1
23.984375,-0.3102206750223368,-34.25,1
24.0,-0.30778405556125743,-28.49,1
24.015625,-0.28476252081297915,-21.44,1
24.03125,-0.2641354639546266,-14.24,1
24.046875,-0.23275930841597986,-7.92,1
24.0625,-0.21199408282528537,-3.17,1
24.078125,-0.18559275248967055,-0.3,1
24.09375,-0.16609923538265053,0.75,1
24.109375,-0.13995580639726635,0.29,1
24.125,-0.1328026471137137,-1.17,1
24.140625,-0.12394579135077805,-3.01,1
24.15625,-0.11190780123529044,-4.59,1
24.171875,-0.10108684635474617,-5.33,1
24.1875,-0.10071031760040626,-4.85,1
24.203125,-0.09772707926384563,-3.14,1
24.21875,-0.08733626198841275,-0.49,1
24.234375,-0.07247594190932152,2.53,1
24.25,-0.08172974302614348,5.35,1
24.265625,-0.06494260091496769,7.55,1
24.28125,-0.063392404562808,9.0,1
24.296875,-0.044467854532612004,9.81,1
24.3125,-0.05657265424519696,10.24,1
24.328125,-0.03688420059016941,10.55,1
24.34375,-0.04105306347926192,10.91,1
24.359375,-0.054262368416838465,11.36,1
24.375,-0.03751321606054073,11.93,1
24.390625,-0.01777816914606312,12.57,1
24.40625,-0.021205314035060107,13.21,1
24.421875,-0.006052849048450751,13.78,1
24.4375,0.027378748523508373,14.1,1
24.453125,0.017021122760818904,14.06,1
24.46875,0.1218232727645149,13.55,1
24.484375,0.0799117375256881,12.61,1
24.5,0.013297881638684141,11.41,1
24.515625,-0.006997717067574525,10.2,1
24.53125,-0.003981752344881635,9.21,1
24.546875,-1.990861114120537e-05,8.51,1
24.5625,-0.02437555483725033,8.03,1
24.578125,0.0020806360304958782,7.57,1
24.59375,-0.26390471614339217,6.91,1
24.609375,0.7426465224816653,5.93,1
24.625,1.6203386897911856,4.66,1
24.640625,0.22528841317610981,3.2,1
24.65625,-0.16196816201779055,1.76,1
24.671875,-0.09736945583502098,0.49,1
24.6875,-0.19848714993951566,-0.47,1
24.703125,-0.15120824342932884,-1.08,1
24.71875,-0.14949295662820133,-1.34,1
24.734375,-0.10237227273542171,-1.36,1
24.75,-0.07071237103083043,-1.31,1
24.765625,-0.02737520705330585,-1.45,1
24.78125,0.0062113375038666116,-1.99,1
24.796875,0.07887206545973072,-3.1,1
24.8125,0.13697409850715278,-4.72,1
24.828125,0.22684642404840194,-6.64,1
24.84375,0.3279093468436333,-8.51,1
24.859375,0.43981920167428556,-10.06,1
24.875,0.5203715741119761,-11.14,1
24.890625,0.4979997165882447,-11.87,1
24.90625,0.295289256066038,-12.53,1
24.921875,0.0371530080170413,-13.47,1
24.9375,-0.17497234072431309,-14.97,1
24.953125,-0.26529567618173805,-17.16,1
24.96875,-0.2958007643123625,-19.99,1
24.984375,-0.2816210531294934,-23.2,1
25.0,-0.26533710161546803,-26.31,1
25.015625,-0.22847128756861232,-28.7,1
25.03125,-0.20764389027630545,-29.68,1
25.046875,-0.18277670158297485,-28.73,1
25.0625,-0.17045373082137108,-25.7,1
25.078125,-0.15086234346433317,-20.94,1
25.09375,-0.12654275853186298,-15.26,1
25.109375,-0.11228300361136015,-9.68,1
25.125,-0.11117618351687282,-5.06,1
25.140625,-0.11030815137656981,-1.89,1
25.15625,-0.10838238296956429,-0.17,1
25.171875,-0.08771665660482221,0.51,1
25.1875,-0.09457881868527979,0.71,1
25.203125,-0.08479165648621714,0.88,1
25.21875,-0.0787219187852805,1.32,1
25.234375,-0.0691656928854879,2.09,1
25.25,-0.063538088033797,3.15,1
25.265625,-0.06011247270215248,4.44,1
25.28125,-0.05757622928145941,5.9,1
25.296875,-0.04393389180338379,7.49,1
25.3125,-0.038254170361599546,9.14,1
25.328125,-0.02679719177780238,10.78,1
25.34375,-0.02886850617158156,12.29,1
25.359375,-0.007830719071368805,13.59,1
25.375,0.008979675084587746,14.68,1
25.390625,0.038688487758240464,15.6,1
25.40625,0.09538344804359405,16.47,1
25.421875,0.03350648711810219,17.42,1
25.4375,-0.0026337300518747176,18.49,1
25.453125,-0.039339064453107274,19.62,1
25.46875,-0.04451535758723548,20.64,1
25.484375,-0.03411459306998305,21.33,1
25.5,-0.0353323740428244,21.49,1
25.515625,-0.0030777598312314147,21.05,1
25.53125,-0.10321824439223783,20.07,1
25.546875,-0.11995919134414704,18.77,1
25.5625,1.3148248624987309,17.44,1
25.578125,1.2964194424415025,16.35,1
25.59375,0.04873906271732292,15.61,1
25.609375,-0.09615713261902815,15.15,1
25.625,-0.19817213818620055,14.79,1
25.640625,-0.22121199251363735,14.33,1
25.65625,-0.1895307794273709,13.64,1
25.671875,-0.15993186376184193,12.71,1
25.6875,-0.124917362332738,11.67,1
25.703125,-0.09059108484240683,10.61,1
25.71875,-0.048955638976032875,9.57,1
25.734375,-0.00237350304951265,8.48,1
25.75,0.048058703399035715,7.21,1
25.765625,0.1233946622969681,5.6,1
25.78125,0.22732975804646893,3.59,1
25.796875,0.3260381270532705,1.24,1
25.8125,0.4199412393914972,-1.23,1
25.828125,0.48018574669896097,-3.56,1
25.84375,0.41669956421089654,-5.55,1
25.859375,0.1759369465369826,-7.15,1
25.875,-0.08996786135019333,-8.49,1
25.890625,-0.2611971090956744,-9.8,1
25.90625,-0.3320612100583243,-11.3,1
25.921875,-0.346535615847921,-13.04,1
25.9375,-0.3135626279168369,-14.95,1
25.953125,-0.3098007491210798,-16.85,1
25.96875,-0.2776079483383458,-18.57,1
25.984375,-0.2572748909744404,-19.94,1
26.0,-0.23502750696121386,-20.82,1
26.015625,-0.2146383312038625,-21.0,1
26.03125,-0.1857232535213709,-20.22,1
26.046875,-0.16156873081969692,-18.25,1
26.0625,-0.14689832346338605,-15.02,1
26.078125,-0.13397747022284742,-10.73,1
26.09375,-0.12552123571591042,-5.9,1
26.109375,-0.12261593846456786,-1.17,1
26.125,-0.10031212403575814,2.87,1
26.140625,-0.10667797720991054,5.85,1
26.15625,-0.09118794546848928,7.71,1
26.171875,-0.09404060535223085,8.64,1
26.1875,-0.06743593817425232,8.94,1
26.203125,-0.06327296184121652,8.92,1
26.21875,-0.05072528127186163,8.79,1
26.234375,-0.05430626696798553,8.68,1
26.25,-0.04662613590687588,8.6,1
26.265625,-0.04633324010943656,8.54,1
26.28125,-0.028171212078048406,8.5,1
26.296875,-0.030263261353211668,8.48,1
26.3125,-0.001579409118670788,8.53,1
26.328125,-0.004275652758013913,8.66,1
26.34375,0.06322599358408083,8.91,1
26.359375,0.07388469718728875,9.25,1
26.375,0.015698753711595417,9.66,1
26.390625,-0.034990891026282785,10.1,1
26.40625,-0.05549207309016672,10.5,1
26.421875,-0.06491149089937837,10.83,1
26.4375,-0.043930562628863974,11.04,1
26.453125,-0.06636625297153669,11.07,1
26.46875,-0.01015323720039244,10.91,1
26.484375,-0.2868366740920797,10.54,1
26.5,0.6150854866083724,9.96,1
26.515625,1.7029947351272552,9.21,1
26.53125,0.49040478757872646,8.33,1
26.546875,-0.12568557431775057,7.38,1
26.5625,-0.13402678391038564,6.39,1
26.578125,-0.23696140131422933,5.36,1
26.59375,-0.19114496060921315,4.27,1
26.609375,-0.1712862511845573,3.08,1
26.625,-0.14013740720132273,1.8,1
26.640625,-0.08856996138205747,0.47,1
26.65625,-0.05258962555555585,-0.82,1
26.671875,-0.01919043921768384,-1.98,1
26.6875,0.044444866366712125,-2.94,1
26.703125,0.08640770176078046,-3.75,1
26.71875,0.18434478495101556,-4.47,1
26.734375,0.2822536312741024,-5.23,1
26.75,0.37590180967097864,-6.11,1
26.765625,0.45596277022934245,-7.12,1
26.78125,0.46652371811232496,-8.18,1
26.796875,0.28614618625782917,-9.23,1
26.8125,0.02183902352125859,-10.19,1
26.828125,-0.18929109490171847,-11.08,1
26.84375,-0.29070737491255116,-12.02,1
26.859375,-0.31591090643283887,-13.2,1
26.875,-0.3070846676677724,-14.8,1
26.890625,-0.28012922829186254,-16.92,1
26.90625,-0.2674301869602736,-19.48,1
26.921875,-0.2389873064019599,-22.16,1
26.9375,-0.1999743699101212,-24.4,1
26.953125,-0.17772419314143084,-25.53,1
26.96875,-0.15465779706905172,-24.96,1
26.984375,-0.13963514884499612,-22.44,1
27.0,-0.11715883795483988,-18.16,1
27.015625,-0.11058872461322425,-12.73,1
27.03125,-0.09914318966705313,-7.05,1
27.046875,-0.09189073371491227,-1.97,1
27.0625,-0.08694504402497148,1.94,1
27.078125,-0.09111080457536636,4.49,1
27.09375,-0.08311715145829394,5.89,1
27.109375,-0.08106032368652837,6.52,1
27.125,-0.07229143258620736,6.8,1
27.140625,-0.06824851922603693,7.05,1
27.15625,-0.0640484095181095,7.46,1
27.171875,-0.04930441884227209,8.1,1
27.1875,-0.03624074808933375,8.99,1
27.203125,-0.03254405983723001,10.06,1
27.21875,-0.029501852949277232,11.19,1
27.234375,-0.011855961487204709,12.23,1
27.25,-0.010289093885554114,12.99,1
27.265625,-0.012480389286879154,13.36,1
27.28125,0.0061692550089765584,13.34,1
27.296875,0.013353237466657349,13.06,1
27.3125,0.011353771658745855,12.73,1
27.328125,0.02302056962796445,12.54,1
27.34375,0.0283728272994283,12.59,1
27.359375,0.03270401447300013,12.83,1
27.375,0.03226016419193167,13.13,1
27.390625,0.04846312541732393,13.34,1
27.40625,0.06573446857954754,13.36,1
27.421875,0.0781378381429908,13.21,1
27.4375,0.16187312998538428,12.93,1
27.453125,0.12919680902174116,12.58,1
27.46875,0.05491724336323348,12.14,1
27.484375,0.010465960184824465,11.49,1
27.5,0.010632271792872218,10.5,1
27.515625,0.025891877455355247,9.13,1
27.53125,0.0042683314014648685,7.45,1
27.546875,0.030666304382999075,5.63,1
27.5625,-0.23382043747591078,3.95,1
27.578125,0.790011720803496,2.6,1
27.59375,1.6344088302717634,1.7,1
27.609375,0.38425306905867973,1.19,1
27.625,-0.09434641463760747,0.91,1
27.640625,-0.1212613280561659,0.65,1
27.65625,-0.2238539146482482,0.23,1
27.671875,-0.18720727183009148,-0.47,1
27.6875,-0.1798034857994045,-1.46,1
27.703125,-0.13748880929719387,-2.71,1
27.71875,-0.10663887798545692,-4.1,1
27.734375,-0.062130300197275355,-5.51,1
27.75,-0.01986086347559057,-6.82,1
27.765625,0.03265688772198588,-7.97,1
27.78125,0.09189391835046812,-8.99,1
27.796875,0.16345932256700527,-10.02,1
27.8125,0.2623991208937221,-11.26,1
27.828125,0.37174322950256,-12.95,1
27.84375,0.4550887000333888,-15.2,1
27.859375,0.46378927929183283,-17.88,1
27.875,0.30401432052135224,-20.55,1
27.890625,0.06365882080783514,-22.54,1
27.90625,-0.14460612319120647,-23.09,1
27.921875,-0.2359428273331955,-21.68,1
27.9375,-0.2744319690088042,-18.26,1
27.953125,-0.27985741256481156,-13.27,1
27.96875,-0.2681963742881197,-7.61,1
27.984375,-0.23732778770195845,-2.24,1
28.0,-0.21326603781557898,2.1,1
28.015625,-0.19687201258922815,5.12,1
28.03125,-0.16134276512589646,6.89,1
28.046875,-0.15610277805418232,7.76,1
28.0625,-0.13190826840568762,8.1,1
28.078125,-0.1133927217571529,8.16,1
28.09375,-0.10943245417773671,8.12,1
28.109375,-0.09449628727127957,8.13,1
28.125,-0.09434742032787367,8.33,1
28.140625,-0.09231066900589764,8.88,1
28.15625,-0.09522671080629828,9.81,1
28.171875,-0.07935503647557504,10.99,1
28.1875,-0.07887174034745378,12.2,1
28.203125,-0.07304845588577001,13.16,1
28.21875,-0.07442963115069239,13.67,1
28.234375,-0.07160550413213328,13.72,1
28.25,-0.061169358973888595,13.42,1
28.265625,-0.05103906662666321,12.95,1
28.28125,-0.04970141195089067,12.5,1
28.296875,-0.04342890710515539,12.15,1
28.3125,-0.0380319848714072,11.89,1
28.328125,-0.03225038079568667,11.61,1
28.34375,-0.027236024330358363,11.18,1
28.359375,-0.0055886964203970355,10.49,1
28.375,-0.01394481150947813,9.52,1
28.390625,0.001676707162106696,8.35,1
28.40625,0.0010174371483498085,7.09,1
28.421875,0.014939819042219941,5.88,1
28.4375,0.015940877019199703,4.81,1
28.453125,0.024659097468396576,3.89,1
28.46875,0.034619509845912985,3.11,1
28.484375,0.02477894487695845,2.4,1
28.5,0.040152141399583334,1.75,1
28.515625,0.04162899565580828,1.14,1
28.53125,0.0618725224307763,0.61,1
28.546875,0.12299603693534643,0.16,1
28.5625,0.1185116393574689,-0.24,1
28.578125,0.03620600885419496,-0.63,1
28.59375,0.018740068566859856,-1.08,1
28.609375,0.0006515697678820302,-1.62,1
28.625,0.01314806747869691,-2.22,1
28.640625,-0.004889840394521652,-2.84,1
28.65625,0.04783308196829487,-3.39,1
28.671875,-0.2403903365962155,-3.82,1
28.6875,0.6543435732769186,-4.15,1
28.703125,1.633456499276619,-4.51,1
28.71875,0.5092023412392082,-5.05,1
28.734375,-0.0644664543695246,-5.91,1
28.75,-0.09905029434870816,-7.12,1
28.765625,-0.20403967722005154,-8.59,1
28.78125,-0.16762875463190033,-10.14,1
28.796875,-0.14814727187877483,-11.62,1
28.8125,-0.11028367017268181,-12.94,1
28.828125,-0.0827662191494381,-14.09,1
28.84375,-0.038907124978834265,-15.15,1
28.859375,0.0029457507729439563,-16.18,1
28.875,0.05255167112777953,-17.3,1
28.890625,0.10877570862993047,-18.61,1
28.90625,0.1802274283791912,-20.22,1
28.921875,0.2753506811532136,-22.18,1
28.9375,0.3786387972744664,-24.36,1
28.953125,0.4677250556021548,-26.39,1
28.96875,0.48712216835472705,-27.69,1
28.984375,0.3440438931299076,-27.62,1
29.0,0.1065228993508587,-25.75,1
29.015625,-0.09491619803002099,-21.99,1
29.03125,-0.22359239570099163,-16.73,1
29.046875,-0.2570101729367485,-10.72,1
29.0625,-0.2618179224197396,-4.81,1
29.078125,-0.26081020481176836,0.27,1
29.09375,-0.22120782216220128,4.08,1
29.109375,-0.2101669749825144,6.51,1
29.125,-0.18411304939728626,7.72,1
29.140625,-0.16458716902655848,8.03,1
29.15625,-0.1383012102617321,7.83,1
29.171875,-0.11593076527786432,7.51,1
29.1875,-0.11917998578982228,7.4,1
29.203125,-0.09998232076683261,7.7,1
29.21875,-0.09392866651717384,8.45,1
29.234375,-0.08207634703112716,9.53,1
29.25,-0.07880905458153993,10.72,1
29.265625,-0.07863073599334519,11.83,1
29.28125,-0.068617131656247,12.75,1
29.296875,-0.07464693323420638,13.44,1
29.3125,-0.054341264244293676,13.94,1
29.328125,-0.03890672414239589,14.26,1
29.34375,-0.04165247976131331,14.41,1
29.359375,-0.04822475547056946,14.37,1
29.375,-0.03685283774938691,14.19,1
29.390625,-0.02772073670290052,13.94,1
29.40625,-0.02662602563804603,13.75,1
29.421875,-0.021200731209655328,13.65,1
29.4375,-0.021313094017188863,13.57,1
29.453125,-0.012099276266212518,13.36,1
29.46875,-0.01946883317918169,12.89,1
29.484375,-0.007207362790873648,12.12,1
29.5,-0.0035708915181333614,11.19,1
29.515625,-0.015659709694354786,10.31,1
29.53125,-0.003718704805910181,9.7,1
29.546875,0.001635346631695646,9.4,1
29.5625,0.00538240654130209,9.26,1
29.578125,0.01696689408653784,9.06,1
29.59375,0.026852508220631482,8.56,1
29.609375,0.1069425682232528,7.7,1
29.625,0.0908706262995757,6.57,1
29.640625,0.013510781339214826,5.39,1
29.65625,-0.006144633901703671,4.38,1
29.671875,-0.030171849128225053,3.63,1
29.6875,-0.005979926752735036,3.06,1
29.703125,-0.039013248563323014,2.52,1
29.71875,0.02778139950955935,1.87,1
29.734375,-0.26537213390001513,1.06,1
29.75,0.5266977116991297,0.15,1
29.765625,1.5891305804413893,-0.77,1
29.78125,0.38157963397518707,-1.65,1
29.796875,-0.14975093904699968,-2.49,1
29.8125,-0.08606311241700303,-3.34,1
29.828125,-0.20683451903455186,-4.28,1
29.84375,-0.15041703514055377,-5.35,1
29.859375,-0.1505929362914749,-6.57,1
29.875,-0.10234728425857952,-7.95,1
29.890625,-0.09383638672405421,-9.47,1
29.90625,-0.06235157191326643,-11.05,1
29.921875,-0.0015349989928656572,-12.56,1
29.9375,0.03784471385593202,-13.83,1
29.953125,0.09488392382494153,-14.77,1
29.96875,0.18228284132717523,-15.41,1
29.984375,0.24667188360308387,-15.96,1
30.0,0.3698415869892927,-16.71,1
30.015625,0.4580234943725096,-17.98,1
30.03125,0.4594710479145698,-19.91,1
30.046875,0.2825844521731176,-22.38,1
30.0625,0.03610091440135752,-24.97,1
30.078125,-0.1920658682329151,-27.04,1
30.09375,-0.31427272961087555,-27.86,1
30.109375,-0.3503927539698019,-26.86,1
30.125,-0.3574218124935476,-23.85,1
30.140625,-0.33049875393956774,-19.09,1
30.15625,-0.3054895330690584,-13.26,1
30.171875,-0.283798949319339,-7.29,1
30.1875,-0.25034656667959004,-2.03,1
30.203125,-0.22342684817135347,1.91,1
30.21875,-0.20565842020665331,4.39,1
30.234375,-0.18655593799695525,5.62,1
30.25,-0.1815546853802971,6.0,1
30.265625,-0.1554410718685752,6.03,1
30.28125,-0.14449458301775306,6.09,1
30.296875,-0.14501421537538783,6.4,1
30.3125,-0.14172010621930153,7.03,1
30.328125,-0.12458847385569011,7.94,1
30.34375,-0.11894809487462829,9.01,1
30.359375,-0.11713352333830997,10.05,1
30.375,-0.1033480139041747,10.91,1
30.390625,-0.08915425264686994,11.47,1
30.40625,-0.08957198578165561,11.7,1
30.421875,-0.07905101787059851,11.69,1
30.4375,-0.07117758877390667,11.6,1
30.453125,-0.0700684524361151,11.63,1
30.46875,-0.06593131641300908,11.92,1
30.484375,-0.04543321024143399,12.46,1
30.5,-0.05238268013898411,13.16,1
30.515625,-0.03649777680550714,13.81,1
30.53125,-0.042411478487424256,14.23,1
30.546875,-0.011454345129063303,14.3,1
30.5625,-0.00542061749149,14.01,1
30.578125,0.061155316704282134,13.43,1
30.59375,0.07660413014965944,12.62,1
30.609375,0.02943301113659993,11.62,1
30.625,-0.03541766198109759,10.47,1
30.640625,-0.03756864077164419,9.19,1
30.65625,-0.02795080152635509,7.89,1
30.671875,-0.040576471609765796,6.7,1
30.6875,-0.027181653878498906,5.78,1
30.703125,-0.08194370786771309,5.2,1
30.71875,-0.18389354204080588,4.94,1
30.734375,1.1918298067985047,4.91,1
30.75,1.4174267324313485,4.94,1
30.765625,0.04551786707738575,4.86,1
30.78125,-0.11014205926389908,4.53,1
30.796875,-0.18537580101138978,3.88,1
30.8125,-0.21177009054773002,2.91,1
30.828125,-0.1785457149587106,1.77,1
30.84375,-0.1590904763811094,0.66,1
30.859375,-0.11998305051815389,-0.22,1
30.875,-0.07909278414441438,-0.8,1
30.890625,-0.04337212737771876,-1.16,1
30.90625,0.003298434872954533,-1.55,1
30.921875,0.061271552805120554,-2.24,1
30.9375,0.11136456277941958,-3.4,1
30.953125,0.2082480906916522,-5.04,1
30.96875,0.31572659126453056,-6.95,1
30.984375,0.4058723775629408,-8.86,1
31.0,0.48503565238620694,-10.52,1
31.015625,0.4340577294632234,-11.84,1
31.03125,0.2172220588487025,-12.87,1
31.046875,-0.04255041153910049,-13.78,1
31.0625,-0.23891898826340469,-14.78,1
31.078125,-0.3223957559570912,-16.03,1
31.09375,-0.33327233050625665,-17.67,1
31.109375,-0.32993509790781167,-19.7,1
31.125,-0.3053087041982365,-21.96,1
31.140625,-0.28133787879307204,-24.02,1
31.15625,-0.26725826508749234,-25.28,1
31.171875,-0.23499449162267078,-25.11,1
31.1875,-0.19912271966365572,-23.09,1
31.203125,-0.17992208167557713,-19.24,1
31.21875,-0.161437263058412,-14.0,1
31.234375,-0.13855381145966875,-8.16,1
31.25,-0.12525856083236409,-2.55,1
31.265625,-0.1305135645711229,2.19,1
31.28125,-0.10511542936017058,5.68,1
31.296875,-0.11290592066022201,7.86,1
31.3125,-0.10854580174292346,8.83,1
31.328125,-0.09274936671922587,8.83,1
31.34375,-0.09570474339811755,8.19,1
31.359375,-0.0875054992618074,7.29,1
31.375,-0.07701726437149037,6.52,1
31.390625,-0.061521744448228326,6.16,1
31.40625,-0.057214911727199266,6.28,1
31.421875,-0.04747366452830766,6.74,1
31.4375,-0.034466779241006,7.27,1
31.453125,-0.03890505025454029,7.65,1
31.46875,-0.020586572783947116,7.82,1
31.484375,-0.015001453467915083,7.88,1
31.5,-0.017701734758240696,8.02,1
31.515625,-0.012391476957463184,8.44,1
31.53125,0.0009414209958513558,9.19,1
31.546875,0.003297346690504665,10.18,1
31.5625,0.0025495217536027712,11.19,1
31.578125,0.012568099789744233,11.99,1
31.59375,0.015808651783945984,12.39,1
31.609375,0.014737453923797097,12.32,1
31.625,0.02711254640041433,11.79,1
31.640625,0.02392034363558987,10.89,1
31.65625,0.019555317953674923,9.74,1
31.671875,0.03505915987492975,8.48,1
31.6875,0.03436296529584849,7.26,1
31.703125,0.03301462353006997,6.2,1
31.71875,0.04145790335699793,5.32,1
31.734375,0.05528396848606626,4.62,1
31.75,0.10284242451385187,3.99,1
31.765625,0.1430251644065108,3.28,1
31.78125,0.09205555604866715,2.35,1
31.796875,0.04610964163698826,1.18,1
31.8125,-0.006131589490897735,-0.16,1
31.828125,0.012820542118693812,-1.5,1
31.84375,0.0009541268769985633,-2.67,1
31.859375,0.005047203306476452,-3.62,1
31.875,-0.037859273070691264,-4.4,1
31.890625,-0.14256901936193386,-5.19,1
31.90625,1.215995074790433,-6.16,1
31.921875,1.4390486434889846,-7.36,1
31.9375,0.15737702017616767,-8.7,1
31.953125,-0.08635525966524234,-10.03,1
31.96875,-0.1764787603610421,-11.17,1
31.984375,-0.2192262385580298,-12.07,1
32.0,-0.19033519580209748,-12.79,1
32.015625,-0.15997762663477547,-13.53,1
32.03125,-0.11856444912552117,-14.48,1
32.046875,-0.08761516016164182,-15.82,1
32.0625,-0.053376564735848626,-17.62,1
32.078125,-0.006062932055069539,-19.86,1
32.09375,0.04517678019726854,-22.33,1
32.109375,0.10332335687035497,-24.66,1
32.125,0.17678366181264868,-26.28,1
32.140625,0.27595865178883316,-26.59,1
32.15625,0.378576180368541,-25.1,1
32.171875,0.4532166082521159,-21.7,1
32.1875,0.45263659683278545,-16.68,1
32.203125,0.26648727270823297,-10.71,1
32.21875,0.027992529669427436,-4.66,1
32.234375,-0.16666374419000604,0.71,1
32.25,-0.2760634146570859,4.86,1
32.265625,-0.2996861790197448,7.63,1
32.28125,-0.3070928841919554,9.13,1
32.296875,-0.2798004464307124,9.67,1
32.3125,-0.2625946891749704,9.64,1
32.328125,-0.2381199635264405,9.4,1
32.34375,-0.22257322122123405,9.26,1
32.359375,-0.18754531600717975,9.37,1
32.375,-0.1742646494919,9.74,1
32.390625,-0.1550437747143632,10.29,1
32.40625,-0.1348070802065634,10.91,1
32.421875,-0.1313793922634532,11.47,1
32.4375,-0.1147364031316282,11.92,1
32.453125,-0.11118441632079505,12.25,1
32.46875,-0.10172002293952226,12.48,1
32.484375,-0.10849786819215104,12.66,1
32.5,-0.0816251882095131,12.81,1
32.515625,-0.09305815570305129,12.97,1
32.53125,-0.072743254868493,13.14,1
32.546875,-0.07097349129827536,13.3,1
32.5625,-0.060900217429836666,13.37,1
32.578125,-0.046402451574993016,13.27,1
32.59375,-0.0528567756731627,12.95,1
32.609375,-0.03960182481814693,12.41,1
32.625,-0.032354930639883414,11.77,1
32.640625,-0.025175228204398326,11.11,1
32.65625,-0.02337474852793334,10.5,1
32.671875,-0.018927509183901316,9.94,1
32.6875,-0.009091756754175636,9.37,1
32.703125,-0.016437466991150305,8.74,1
32.71875,0.012601742947477165,8.05,1
32.734375,-0.004372485722456687,7.36,1
32.75,0.006668376823514613,6.76,1
32.765625,-0.0054011248619777515,6.31,1
32.78125,0.015921401376965762,5.97,1
32.796875,0.009402790135430023,5.67,1
32.8125,0.015446359050368154,5.32,1
32.828125,0.01825225115985039,4.86,1
32.84375,0.024816274824502195,4.31,1
32.859375,0.02553858057290789,3.73,1
32.875,0.02811732610213709,3.17,1
32.890625,0.03344296223453802,2.62,1
32.90625,0.029789247352997355,2.04,1
32.921875,0.03359336840114751,1.33,1
32.9375,0.035371114294994066,0.47,1
32.953125,0.03657565804141736,-0.55,1
32.96875,0.03797191031326995,-1.63,1
32.984375,0.04604985115357478,-2.67,1
33.0,0.06458451913254548,-3.59,1
33.015625,0.08332565235597662,-4.39,1
33.03125,0.1518337561762116,-5.15,1
33.046875,0.0839720976809929,-5.97,1
33.0625,0.04041004520031295,-7.0,1
33.078125,-0.006324257286345945,-8.29,1
33.09375,0.017593718392316653,-9.83,1
33.109375,-0.020528607683120988,-11.51,1
33.125,0.0464110120002484,-13.15,1
33.140625,-0.22484087511448508,-14.55,1
33.15625,0.32384240434877104,-15.63,1
33.171875,1.631634663688728,-16.4,1
33.1875,0.8151130256090843,-17.03,1
33.203125,-0.04583469446842644,-17.79,1
33.21875,-0.09199625594995739,-18.95,1
33.234375,-0.2321061501379572,-20.71,1
33.25,-0.19371685583041512,-23.05,1
33.265625,-0.18396030487153867,-25.69,1
33.28125,-0.13701972495910725,-28.1,1
33.296875,-0.11986483917721702,-29.57,1
33.3125,-0.06832547820372711,-29.43,1
33.328125,-0.030966694128844015,-27.23,1
33.34375,0.009032941568461683,-22.96,1
33.359375,0.06438260155135735,-17.07,1
33.375,0.12410716162046787,-10.37,1
33.390625,0.21526248976539197,-3.8,1
33.40625,0.2975564821472977,1.79,1
33.421875,0.38456477404895184,5.87,1
33.4375,0.4514137516871745,8.29,1
33.453125,0.3889173912570994,9.21,1
33.46875,0.1756686415463301,9.03,1
33.484375,-0.05123803382633387,8.28,1
33.5,-0.21538807731221904,7.5,1
33.515625,-0.2730348573923048,7.13,1
33.53125,-0.29221163670778466,7.43,1
33.546875,-0.27836916528596717,8.4,1
33.5625,-0.2600654523877283,9.83,1
33.578125,-0.22951142759736334,11.36,1
33.59375,-0.21534718252224658,12.63,1
33.609375,-0.1921002073707058,13.44,1
33.625,-0.17220393570503933,13.74,1
33.640625,-0.16561396143074236,13.66,1
33.65625,-0.13536177052350956,13.37,1
33.671875,-0.12479231585811967,13.05,1
33.6875,-0.11582927937239637,12.84,1
33.703125,-0.11127147103973965,12.82,1
33.71875,-0.11143703335966713,13.02,1
33.734375,-0.09890540071661212,13.36,1
33.75,-0.1024215836454068,13.69,1
33.765625,-0.10248219370765613,13.82,1
33.78125,-0.09668794926231682,13.61,1
33.796875,-0.07225910372357569,13.03,1
33.8125,-0.07643803317605881,12.17,1
33.828125,-0.05933543105434291,11.22,1
33.84375,-0.05543397679468647,10.34,1
33.859375,-0.047794998157769004,9.63,1
33.875,-0.04251493445549494,9.07,1
33.890625,-0.03662073951827403,8.59,1
33.90625,-0.02491434622456854,8.11,1
33.921875,-0.02919389120594136,7.6,1
33.9375,-0.016991407825659995,7.09,1
33.953125,-0.015061381745537172,6.62,1
33.96875,-0.019317291586954992,6.23,1
33.984375,-0.011792009163629236,5.88,1
34.0,-0.00848064681024364,5.51,1
34.015625,-0.00676667556861397,5.07,1
34.03125,0.0031643139891020583,4.53,1
34.046875,0.006737966487564562,3.92,1
34.0625,0.009640485926352579,3.31,1
34.078125,0.01422761284128855,2.72,1
34.09375,0.024922238185818162,2.17,1
34.109375,0.02402268718211852,1.64,1
34.125,0.032066714871615526,1.13,1
34.140625,0.03578718846602933,0.62,1
34.15625,0.030018948150990838,0.13,1
34.171875,0.04416771543375125,-0.32,1
34.1875,0.058319534510038955,-0.77,1
34.203125,0.07853622160971098,-1.28,1
34.21875,0.1487963129018325,-1.94,1
34.234375,0.0876452041181776,-2.76,1
34.25,0.060979766756564836,-3.69,1
34.265625,-0.007040681156299648,-4.64,1
34.28125,0.0253848976669312,-5.51,1
34.296875,-0.004766249818676929,-6.3,1
34.3125,0.05198544254773185,-7.12,1
34.328125,-0.23730837973656302,-8.11,1
34.34375,0.5611714577946613,-9.38,1
34.359375,1.6295311451089558,-10.89,1
34.375,0.5901104118841785,-12.48,1
34.390625,-0.054218171388578276,-13.87,1
34.40625,-0.08031015380534928,-14.84,1
34.421875,-0.20871789420060138,-15.32,1
34.4375,-0.1576170342613511,-15.48,1
34.453125,-0.158829023597541,-15.67,1
34.46875,-0.12149021119248242,-16.3,1
34.484375,-0.09663655765887963,-17.7,1
34.5,-0.03804088564253093,-19.99,1
34.515625,0.0037554714897075573,-22.99,1
34.53125,0.03957358422505041,-26.2,1
34.546875,0.09737875078109594,-28.89,1
34.5625,0.1648811306685809,-30.24,1
34.578125,0.26713464906016715,-29.59,1
34.59375,0.37344530514876534,-26.65,1
34.609375,0.4583037862868692,-21.63,1
34.625,0.508709956091181,-15.23,1
34.640625,0.3900421341902327,-8.42,1
34.65625,0.17092322146307118,-2.17,1
34.671875,-0.06747121788327476,2.84,1
34.6875,-0.2341676698226148,6.31,1
34.703125,-0.28537244351567653,8.28,1
34.71875,-0.31365211854570435,9.03,1
34.734375,-0.285535536796754,8.96,1
34.75,-0.2595743636402475,8.41,1
34.765625,-0.2453932821494532,7.73,1
34.78125,-0.22600693793753132,7.18,1
34.796875,-0.19885844658668775,6.94,1
34.8125,-0.1701096652034491,7.11,1
34.828125,-0.15929722979445884,7.68,1
34.84375,-0.1458832356176273,8.54,1
34.859375,-0.13230032496342026,9.54,1
34.875,-0.12048873810385478,10.49,1
34.890625,-0.10849638708260129,11.26,1
34.90625,-0.11381334517191137,11.76,1
34.921875,-0.10841652659610072,12.0,1
34.9375,-0.09052432701126799,12.08,1
34.953125,-0.10008589058940488,12.11,1
34.96875,-0.07539272489614435,12.18,1
34.984375,-0.08440608862772248,12.31,1
35.0,-0.06396251622365327,12.44,1
35.015625,-0.06249460081729286,12.48,1
35.03125,-0.046479304455118504,12.31,1
35.046875,-0.04457022178453514,11.91,1
35.0625,-0.04017974214963989,11.31,1
35.078125,-0.0405459712583628,10.63,1
35.09375,-0.02521685579099632,9.97,1
35.109375,-0.024948739868155774,9.38,1
35.125,-0.027191449790949354,8.87,1
35.140625,-0.02512170275757722,8.39,1
35.15625,-0.01822353462510992,7.91,1
35.171875,-0.010499409958181737,7.4,1
35.1875,-0.014631338351906763,6.89,1
35.203125,-0.006407020426614786,6.4,1
35.21875,-0.0162981890311526,5.93,1
35.234375,0.0031156428398747176,5.46,1
35.25,0.005245914762431711,4.94,1
35.265625,0.02716996493769045,4.36,1
35.28125,0.02771142464015124,3.77,1
35.296875,0.1003417391698925,3.27,1
35.3125,0.08137471130670479,2.95,1
35.328125,0.023047138950927252,2.84,1
35.34375,-0.017948066082225815,2.86,1
35.359375,-0.02146411340029515,2.81,1
35.375,-0.039047122207107585,2.49,1
35.390625,0.006785589627240926,1.76,1
35.40625,-0.1860783022948301,0.61,1
35.421875,0.0600733467170383,-0.82,1
35.4375,1.509908637107068,-2.34,1
35.453125,0.9485468653224578,-3.74,1
35.46875,-0.0963558651174573,-4.92,1
35.484375,-0.0719167622808962,-5.92,1
35.5,-0.21803804562062365,-6.83,1
35.515625,-0.20482338260935543,-7.77,1
35.53125,-0.18908076993621187,-8.81,1
35.546875,-0.15704538961486902,-9.95,1
35.5625,-0.11602432183551413,-11.16,1
35.578125,-0.0821778502177266,-12.38,1
35.59375,-0.04742775728175049,-13.54,1
35.609375,0.007543089017502176,-14.63,1
35.625,0.058717386257820546,-15.65,1
35.640625,0.12918744769318613,-16.64,1
35.65625,0.19567526520500864,-17.7,1
35.671875,0.29894611732068294,-18.93,1
35.6875,0.3820867732866883,-20.52,1
35.703125,0.4538095158489109,-22.52,1
35.71875,0.38229619282550903,-24.81,1
35.734375,0.1602101188042313,-27.01,1
35.75,-0.07481371175452996,-28.45,1
35.765625,-0.23156179169641092,-28.45,1
35.78125,-0.31690501386134423,-26.46,1
35.796875,-0.322023343938366,-22.41,1
35.8125,-0.32190880549509787,-16.73,1
35.828125,-0.28798370076856045,-10.24,1
35.84375,-0.25400897256666144,-3.9,1
35.859375,-0.24124213753210833,1.52,1
35.875,-0.22494724144221392,5.63,1
35.890625,-0.18685617868413393,8.35,1
35.90625,-0.1798280052296572,9.87,1
35.921875,-0.15072170896670659,10.45,1
35.9375,-0.13929232787272286,10.36,1
35.953125,-0.13121462078372284,9.82,1
35.96875,-0.1272418656238689,9.08,1
35.984375,-0.12159280113716792,8.34,1
36.0,-0.11046937579294396,7.75,1
36.015625,-0.1080363467077278,7.4,1
36.03125,-0.09892586632715869,7.26,1
36.046875,-0.09791886103463499,7.29,1
36.0625,-0.0821869695708781,7.47,1
36.078125,-0.07256860752088747,7.84,1
36.09375,-0.06595112524268551,8.39,1
36.109375,-0.04031027323259221,9.11,1
36.125,-0.04407996935804214,9.9,1
36.140625,-0.03193226681347373,10.64,1
36.15625,-0.04135507590569699,11.21,1
36.171875,-0.01481462792301948,11.57,1
36.1875,-0.010136099531459235,11.73,1
36.203125,-0.015837676820412875,11.74,1
36.21875,-0.0015130961238728426,11.6,1
36.234375,-0.006847867882497773,11.32,1
36.25,-0.005485334763541944,10.89,1
36.265625,0.008415408413256652,10.32,1
36.28125,-0.0069306040024107105,9.67,1
36.296875,0.006214758173626092,9.01,1
36.3125,0.017232564393359635,8.37,1
36.328125,0.011639160256642102,7.75,1
36.34375,0.016016822165367137,7.08,1
36.359375,0.029902701168732584,6.31,1
36.375,0.035455227787931774,5.42,1
36.390625,0.13079677148191826,4.46,1
36.40625,0.09328959474247858,3.57,1
36.421875,0.03365561963081982,2.88,1
36.4375,-0.008281857120748118,2.44,1
36.453125,-0.0014676048653265324,2.2,1
36.46875,-0.036061036538543007,2.02,1
36.484375,0.02935765464758726,1.72,1
36.5,-0.2102521447082103,1.14,1
36.515625,0.19310947930851524,0.24,1
36.53125,1.591324401248055,-0.9,1
36.546875,0.9164490146496194,-2.15,1
36.5625,-0.026625300134085705,-3.37,1
36.578125,-0.07949411781710719,-4.46,1
36.59375,-0.2260668744375142,-5.42,1
36.609375,-0.20296096508540598,-6.31,1
36.625,-0.1830482945311375,-7.23,1
36.640625,-0.15310936004152823,-8.23,1
36.65625,-0.10850647425024959,-9.32,1
36.671875,-0.07123421456717995,-10.41,1
36.6875,-0.048055649333941956,-11.42,1
36.703125,0.009715081150871536,-12.33,1
36.71875,0.04908886343193577,-13.23,1
36.734375,0.1166416248462787,-14.29,1
36.75,0.20251441779283624,-15.7,1
36.765625,0.30077451690138346,-17.58,1
36.78125,0.3869603191127267,-19.89,1
36.796875,0.45565552966808176,-22.38,1
36.8125,0.3862195033712899,-24.64,1
36.828125,0.18436755422222145,-26.14,1
36.84375,-0.0630743767628125,-26.34,1
36.859375,-0.22474757382399532,-24.85,1
36.875,-0.2932623330289418,-21.53,1
36.890625,-0.299247295813637,-16.61,1
36.90625,-0.286633281760454,-10.64,1
36.921875,-0.2638460185393708,-4.43,1
36.9375,-0.24531090300081396,1.21,1
36.953125,-0.22021744308086272,5.68,1
36.96875,-0.20393431107889898,8.72,1
36.984375,-0.1760476026947879,10.42,1
37.0,-0.15766923062229848,11.07,1
37.015625,-0.14794931116519988,11.04,1
37.03125,-0.1265926947364155,10.6,1
37.046875,-0.11694999902255204,9.94,1
37.0625,-0.10996742151913252,9.22,1
37.078125,-0.11032535235904074,8.6,1
37.09375,-0.10544948616488567,8.26,1
37.109375,-0.09292829513171745,8.29,1
37.125,-0.08676238822030415,8.65,1
37.140625,-0.09344157276985866,9.24,1
37.15625,-0.07198436467119128,9.86,1
37.171875,-0.08697796537474978,10.39,1
37.1875,-0.05732752577108028,10.8,1
37.203125,-0.057911224279186005,11.12,1
37.21875,-0.05220510993280294,11.46,1
37.234375,-0.05277741425882019,11.89,1
37.25,-0.045227290473737615,12.45,1
37.265625,-0.028110793602524522,13.09,1
37.28125,-0.041006157196961615,13.71,1
37.296875,-0.021124186565517383,14.16,1
37.3125,-0.03304163974964958,14.27,1
37.328125,-0.01398375551347666,13.95,1
37.34375,-0.008523443100339092,13.19,1
37.359375,-0.007465871248943341,12.06,1
37.375,0.0005884164295410166,10.7,1
37.390625,-0.010134022884630584,9.3,1
37.40625,0.0038162485730608912,7.96,1
37.421875,0.00034417180653082996,6.75,1
37.4375,0.032183500054292054,5.7,1
37.453125,0.020163571302923088,4.78,1
37.46875,0.08426564173471426,3.97,1
37.484375,0.11510754599590636,3.26,1
37.5,0.037684614333555015,2.62,1
37.515625,0.0049517138292741675,2.03,1
37.53125,-0.020085841571359297,1.47,1
37.546875,-0.010173343258116863,0.91,1
37.5625,-0.007899436322170062,0.32,1
37.578125,-0.05414685122675159,-0.34,1
37.59375,-0.211937650719289,-1.1,1
37.609375,1.1470815242960546,-1.95,1
37.625,1.4520649907859464,-2.82,1
37.640625,0.17363090781678375,-3.61,1
37.65625,-0.06407992368478686,-4.27,1
37.671875,-0.18090329221138482,-4.82,1
37.6875,-0.2209072332378436,-5.43,1
37.703125,-0.18890972230914344,-6.26,1
37.71875,-0.14831529368206273,-7.45,1
37.734375,-0.12496076622400143,-8.96,1
37.75,-0.08851596163714795,-10.65,1
37.765625,-0.05375744023587725,-12.29,1
37.78125,-0.0025678726998353434,-13.73,1
37.796875,0.041500216166014556,-14.93,1
37.8125,0.10200556019327071,-16.01,1
37.828125,0.17165871079152978,-17.17,1
37.84375,0.2641201794954132,-18.64,1
37.859375,0.3520947377465765,-20.63,1
37.875,0.4418456716620027,-23.18,1
37.890625,0.4300672184000978,-26.17,1
37.90625,0.26678954411763406,-29.16,1
37.921875,0.021523469043377378,-31.45,1
37.9375,-0.17237340625093908,-32.25,1
37.953125,-0.2711516831703796,-30.92,1
37.96875,-0.3045351884506255,-27.27,1
37.984375,-0.2972259553657469,-21.68,1
38.0,-0.2835819394617215,-15.0,1
38.015625,-0.2587213461752981,-8.28,1
38.03125,-0.24194765468172785,-2.4,1
38.046875,-0.21422996314007167,2.19,1
38.0625,-0.1906829525828048,5.37,1
38.078125,-0.16915573322237434,7.31,1
38.09375,-0.1514808001143165,8.25,1
38.109375,-0.13425880197608347,8.47,1
38.125,-0.11633480924363349,8.24,1
38.140625,-0.11696366966814833,7.92,1
38.15625,-0.10310215979555801,7.86,1
38.171875,-0.10606278886821215,8.36,1
38.1875,-0.10027447291382996,9.46,1
38.203125,-0.09176830420978206,10.95,1
38.21875,-0.0884602230988858,12.49,1
38.234375,-0.07739717948003204,13.74,1
38.25,-0.07536695495102677,14.53,1
38.265625,-0.052720213470943286,14.91,1
38.28125,-0.05569970317286741,15.03,1
38.296875,-0.041794025083994206,15.07,1
38.3125,-0.026643818805158648,15.15,1
38.328125,-0.022924825478235027,15.28,1
38.34375,-0.021681292161871642,15.46,1
38.359375,-0.02031792116727832,15.64,1
38.375,-0.011164344514417234,15.78,1
38.390625,-0.008905926715587252,15.81,1
38.40625,0.0034084197405291864,15.64,1
38.421875,-0.0046505347681293115,15.2,1
38.4375,0.012527097764200842,14.46,1
38.453125,0.009946008130632173,13.47,1
38.46875,0.014067258432234385,12.32,1
38.484375,0.01471506638669776,11.13,1
38.5,0.020266170863378435,9.99,1
38.515625,0.018619078263694962,8.98,1
38.53125,0.022812476041451226,8.14,1
38.546875,0.033723632798834675,7.5,1
38.5625,0.024982086273926285,7.08,1
38.578125,0.03648196304399899,6.82,1
38.59375,0.05329730509803792,6.61,1
38.609375,0.050107998923233185,6.3,1
38.625,0.14428772907507337,5.77,1
38.640625,0.09628593858985135,4.99,1
38.65625,0.044938831302743176,3.99,1
38.671875,-0.021014514337886054,2.87,1
38.6875,0.016812339098343735,1.73,1
38.703125,-0.022190548116448227,0.63,1
38.71875,0.044529146978489885,-0.43,1
38.734375,-0.2316293323240354,-1.46,1
38.75,0.34388239301418894,-2.5,1
38.765625,1.6462284783122905,-3.59,1
38.78125,0.7505368513841273,-4.8,1
38.796875,-0.04477554807643276,-6.18,1
38.8125,-0.09403591744480026,-7.73,1
38.828125,-0.22496925306759163,-9.4,1
38.84375,-0.18660652067756145,-11.09,1
38.859375,-0.17848761467330884,-12.62,1
38.875,-0.1315457915735901,-13.92,1
38.890625,-0.10904695907228348,-14.99,1
38.90625,-0.06364375235137736,-16.0,1
38.921875,-0.031226193225857582,-17.2,1
38.9375,0.027700301530092283,-18.85,1
38.953125,0.06083957625685492,-21.12,1
38.96875,0.12963885159343325,-23.94,1
38.984375,0.21457356131610505,-26.94,1
39.0,0.31602478625559255,-29.51,1
39.015625,0.4016604727910433,-30.89,1
39.03125,0.44972386539209497,-30.42,1
39.046875,0.3722062554997922,-27.75,1
39.0625,0.16091959811680578,-23.01,1
39.078125,-0.06173044769978031,-16.79,1
39.09375,-0.22377976423874568,-10.02,1
39.109375,-0.2804783950641953,-3.65,1
39.125,-0.2836955009085416,1.59,1
39.140625,-0.2778640064546933,5.37,1
39.15625,-0.2600232036478544,7.72,1
39.171875,-0.23569696338712082,8.94,1
39.1875,-0.21788920564780112,9.39,1
39.203125,-0.19276696925034753,9.42,1
39.21875,-0.16955635954437642,9.32,1
39.234375,-0.15304679849769795,9.3,1
39.25,-0.13962778872968643,9.52,1
39.265625,-0.1169736050543809,10.08,1
39.28125,-0.1154120098415321,10.98,1
39.296875,-0.10818379044050715,12.11,1
39.3125,-0.10433786061359666,13.29,1
39.328125,-0.10449038117677682,14.33,1
39.34375,-0.09887826458890958,15.1,1
39.359375,-0.09098565528994201,15.54,1
39.375,-0.087667322073873,15.71,1
39.390625,-0.08402270752436544,15.72,1
39.40625,-0.0714845183644928,15.69,1
39.421875,-0.06095001944950632,15.71,1
39.4375,-0.04970842664664296,15.83,1
39.453125,-0.05050357407255811,16.0,1
39.46875,-0.04029422852710375,16.1,1
39.484375,-0.0345199005735584,15.97,1
39.5,-0.03254534158948774,15.47,1
39.515625,-0.025066559223572895,14.55,1
39.53125,-0.020003202319265275,13.33,1
39.546875,-0.022268519885011547,12.02,1
39.5625,-0.004499864153928875,10.87,1
39.578125,-0.0070410463516170614,10.05,1
39.59375,0.007746000206915961,9.62,1
39.609375,0.013428936202311129,9.47,1
39.625,0.009800887979367635,9.39,1
39.640625,0.019231886470638098,9.18,1
39.65625,0.025668897861795215,8.71,1
39.671875,0.021943094978405266,7.93,1
39.6875,0.0284980204890832,6.93,1
39.703125,0.029587272069344275,5.87,1
39.71875,0.03795718351114054,4.9,1
39.734375,0.037111191258297996,4.12,1
39.75,0.05024147466523724,3.55,1
39.765625,0.04814110527471441,3.12,1
39.78125,0.0671153084466188,2.68,1
39.796875,0.06479832855696507,2.09,1
39.8125,0.15737858256544524,1.26,1
39.828125,0.12089510363765302,0.22,1
39.84375,0.06150707378127816,-0.92,1
39.859375,0.0069645845060658865,-2.04,1
39.875,0.03524536658868948,-3.02,1
39.890625,0.011973429912614856,-3.86,1
39.90625,0.062152066297313145,-4.68,1
39.921875,-0.1932755626137436,-5.64,1
39.9375,0.29999341031197113,-6.92,1
39.953125,1.603974533047552,-8.54,1
39.96875,0.7777943426550785,-10.41,1
39.984375,-0.06831920807707834,-12.29,1
40.0,-0.05949971262277984,-13.94,1
40.015625,-0.20742225277623244,-15.21,1
40.03125,-0.16758071982860967,-16.11,1
40.046875,-0.16436717199986245,-16.81,1
40.0625,-0.11812257828254494,-17.6,1
40.078125,-0.10446177510588098,-18.81,1
40.09375,-0.05439174666842055,-20.66,1
40.109375,-0.022752420846442287,-23.22,1
40.125,0.025130373335764483,-26.29,1
40.140625,0.0780439812515469,-29.33,1
40.15625,0.1434437284825986,-31.52,1
40.171875,0.23237894015675709,-32.04,1
40.1875,0.3323715649312809,-30.27,1
40.203125,0.4263097050053908,-26.15,1
40.21875,0.48794751747914666,-20.18,1
40.234375,0.4114950236053779,-13.36,1
40.25,0.18984782447354392,-6.77,1
40.265625,-0.05972359206268398,-1.28,1
40.28125,-0.23041074723528826,2.69,1
40.296875,-0.3073034203135031,5.2,1
40.3125,-0.3096065377414729,6.62,1
40.328125,-0.2920880962442686,7.35,1
40.34375,-0.28471446672803663,7.74,1
40.359375,-0.2631973410904555,7.99,1
40.375,-0.23537141643077023,8.21,1
40.390625,-0.20998963823918612,8.5,1
40.40625,-0.1901222150221711,8.95,1
40.421875,-0.16834118573014184,9.58,1
40.4375,-0.15816972163906304,10.38,1
40.453125,-0.13796183737789972,11.26,1
40.46875,-0.12386923674481573,12.13,1
40.484375,-0.1198681018117257,12.94,1
40.5,-0.11773579239844269,13.68,1
40.515625,-0.10505536244629654,14.39,1
40.53125,-0.10101513192332282,15.07,1
40.546875,-0.10079788626559127,15.65,1
40.5625,-0.0942312213036921,16.07,1
40.578125,-0.09739072539965936,16.25,1
40.59375,-0.07873341694885914,16.21,1
40.609375,-0.06159189318068296,16.05,1
40.625,-0.06434160094591163,15.87,1
40.640625,-0.05725093531541195,15.71,1
40.65625,-0.05520510205297955,15.48,1
40.671875,-0.045454481517900366,15.05,1
40.6875,-0.04323023116439177,14.3,1
40.703125,-0.03517423287531879,13.28,1
40.71875,-0.03496531620859889,12.16,1
40.734375,-0.03678231852178703,11.18,1
40.75,-0.0275625528678614,10.47,1
40.765625,-0.026332226460808777,10.02,1
40.78125,-0.0343037741392198,9.69,1
40.796875,-0.012736732846142605,9.29,1
40.8125,-0.01824820457361302,8.71,1
40.828125,-0.015891734514252173,8.01,1
40.84375,-0.003291574193360014,7.3,1
40.859375,0.010913716039345562,6.69,1
40.875,0.019261789737872195,6.22,1
40.890625,0.08613574908255134,5.8,1
40.90625,0.07806733996050512,5.33,1
40.921875,0.0162856228148011,4.74,1
40.9375,-0.028916973607265077,4.02,1
40.953125,-0.036549987446468576,3.21,1
40.96875,-0.04388142079051877,2.33,1
40.984375,-0.02010452476619376,1.41,1
41.0,-0.1293011803854194,0.46,1
41.015625,-0.09200886562377392,-0.5,1
41.03125,1.4116439159093124,-1.39,1
41.046875,1.1581963992286297,-2.13,1
41.0625,-0.056490098798722105,-2.66,1
41.078125,-0.08094262672738578,-3.06,1
41.09375,-0.2193271334342666,-3.5,1
41.109375,-0.21797223032916188,-4.21,1
41.125,-0.20690981234845005,-5.34,1
41.140625,-0.16517106033518167,-6.89,1
41.15625,-0.13237049997632236,-8.67,1
41.171875,-0.0780377936376293,-10.41,1
41.1875,-0.05435165814431259,-11.94,1
41.203125,-0.0071020965448996545,-13.2,1
41.21875,0.04896235477503745,-14.33,1
41.234375,0.11350630325354152,-15.54,1
41.25,0.20178602172838367,-17.02,1
41.265625,0.299394770311122,-18.88,1
41.28125,0.3870853007903943,-21.17,1
41.296875,0.4602942105838726,-23.82,1
41.3125,0.41078716338240295,-26.69,1
41.328125,0.22495529837051345,-29.43,1
41.34375,-0.030616413780775058,-31.47,1
41.359375,-0.1986590301598881,-32.14,1
41.375,-0.2970986129154663,-30.81,1
41.390625,-0.30294392013389104,-27.27,1
41.40625,-0.2935234909604459,-21.81,1
41.421875,-0.2862441643138971,-15.21,1
41.4375,-0.25491779496344363,-8.52,1
41.453125,-0.24351606668284395,-2.65,1
41.46875,-0.21692167895104628,1.86,1
41.484375,-0.18555777951497085,4.86,1
41.5,-0.1737629730105228,6.56,1
41.515625,-0.1444832143612877,7.29,1
41.53125,-0.13134150533561575,7.38,1
41.546875,-0.1097968895583132,7.12,1
41.5625,-0.10265234537629823,6.78,1
41.578125,-0.09658916078448063,6.59,1
41.59375,-0.09874636507005355,6.75,1
41.609375,-0.08956095939527337,7.33,1
41.625,-0.08879967590244472,8.29,1
41.640625,-0.08298460118525208,9.48,1
41.65625,-0.06757597755230828,10.68,1
41.671875,-0.06914774853176184,11.71,1
41.6875,-0.05196119051505761,12.45,1
41.703125,-0.04038316578861885,12.88,1
41.71875,-0.0421441820715343,13.05,1
41.734375,-0.022511364320723173,13.08,1
41.75,-0.031510567566000305,13.1,1
41.765625,-0.02431451679890362,13.24,1
41.78125,-0.015848755702268805,13.56,1
41.796875,-0.011435245229693433,13.97,1
41.8125,-0.009173358449898444,14.33,1
41.828125,-0.0024893584057465836,14.41,1
41.84375,-0.003003069265350115,14.05,1
41.859375,0.0015114342503560324,13.23,1
41.875,0.005418632058630953,12.08,1
41.890625,0.013749773793883058,10.8,1
41.90625,0.011521267768650019,9.6,1
41.921875,0.012918274800601452,8.62,1
41.9375,0.02452064556409583,7.86,1
41.953125,0.013928279455732832,7.27,1
41.96875,0.022267224926224943,6.78,1
41.984375,0.019105908645982845,6.38,1
42.0,0.039832179098900036,6.06,1
42.015625,0.03539802447739337,5.78,1
42.03125,0.06281648481055487,5.47,1
42.046875,0.14102817912323817,4.99,1
42.0625,0.07077979893188903,4.25,1
42.078125,0.03468736011810001,3.21,1
42.09375,-0.009727419936886384,1.97,1
42.109375,0.010780919981810305,0.71,1
42.125,-0.021517225611996618,-0.39,1
42.140625,0.02505226779922837,-1.21,1
42.15625,-0.26380840255696136,-1.77,1
42.171875,0.6927164904879984,-2.24,1
42.1875,1.6477880257245128,-2.86,1
42.203125,0.46155636382871235,-3.84,1
42.21875,-0.0703037206836075,-5.31,1
42.234375,-0.13195387818822274,-7.2,1
42.25,-0.2323662135428889,-9.32,1
42.265625,-0.18529587565277186,-11.37,1
42.28125,-0.17475763528911334,-13.09,1
42.296875,-0.14298358990089519,-14.34,1
42.3125,-0.11312627958175972,-15.17,1
42.328125,-0.054938603442951324,-15.76,1
42.34375,-0.029629109922134533,-16.43,1
42.359375,0.01572717025180085,-17.49,1
42.375,0.07157640269215258,-19.16,1
42.390625,0.13987323366990173,-21.49,1
42.40625,0.23040444430276494,-24.22,1
42.421875,0.3340769884251193,-26.81,1
42.4375,0.4157923142107547,-28.47,1
42.453125,0.46072204060498223,-28.43,1
42.46875,0.3429261695058194,-26.23,1
42.484375,0.12061120183370662,-21.88,1
42.5,-0.1126565366960941,-16.0,1
42.515625,-0.2356381314666876,-9.57,1
42.53125,-0.299901182874321,-3.62,1
42.546875,-0.30166050952906903,1.07,1
42.5625,-0.2808539955119026,4.24,1
42.578125,-0.263930169418505,6.03,1
42.59375,-0.23831622326478522,6.88,1
42.609375,-0.22399764240268602,7.25,1
42.625,-0.20296881207934095,7.49,1
42.640625,-0.16807238112500372,7.81,1
42.65625,-0.1529456035485431,8.28,1
42.671875,-0.13786045000803862,8.92,1
42.6875,-0.11598457269857362,9.66,1
42.703125,-0.11229768115265489,10.46,1
42.71875,-0.08976017613249022,11.21,1
42.734375,-0.09603276892013449,11.89,1
42.75,-0.09394099298823198,12.48,1
42.765625,-0.07998534443843552,12.97,1
42.78125,-0.08803954926828725,13.36,1
42.796875,-0.0775139489171642,13.64,1
42.8125,-0.0697359013299187,13.8,1
42.828125,-0.06025303635499107,13.89,1
42.84375,-0.05284249541160105,13.98,1
42.859375,-0.04492819760952253,14.12,1
42.875,-0.03579921283801026,14.33,1
42.890625,-0.033518971558452466,14.5,1
42.90625,-0.040645918057079095,14.49,1
42.921875,-0.020668645106384585,14.17,1
42.9375,-0.018469302839514725,13.49,1
42.953125,-0.014511230143409383,12.56,1
42.96875,-0.009668884745087685,11.57,1
42.984375,-0.00978347580665886,10.7,1
43.0,0.004668151127218583,10.04,1
43.015625,0.0019909249195477698,9.56,1
43.03125,0.008632394164687975,9.18,1
43.046875,0.01075079204828173,8.77,1
43.0625,0.010679817467728982,8.25,1
43.078125,0.023467555123649043,7.61,1
43.09375,0.013431011967330507,6.88,1
43.109375,0.02748089268265303,6.11,1
43.125,0.022777399433105097,5.35,1
43.140625,0.03326903509504523,4.66,1
43.15625,0.0298181644859294,4.03,1
43.171875,0.03402492476110843,3.43,1
43.1875,0.026814690121078982,2.79,1
43.203125,0.054792119791843355,2.05,1
43.21875,0.042555473557241506,1.16,1
43.234375,0.0753905949278435,0.16,1
43.25,0.13778796802394666,-0.92,1
43.265625,0.07306437354597103,-2.03,1
43.28125,0.03604223750012712,-3.12,1
43.296875,-0.0089709045834528,-4.18,1
43.3125,0.01902584315135506,-5.22,1
43.328125,-0.0021385377612474937,-6.27,1
43.34375,0.02304130345321583,-7.35,1
43.359375,-0.250423493627746,-8.5,1
43.375,0.8323254968875136,-9.75,1
43.390625,1.5901043931473593,-11.12,1
43.40625,0.3798153168631477,-12.61,1
43.421875,-0.06880133002783184,-14.12,1
43.4375,-0.14097479220891918,-15.55,1
43.453125,-0.23629067471725676,-16.8,1
43.46875,-0.1939386511966252,-17.86,1
43.484375,-0.1727839744104784,-18.87,1
43.5,-0.13427686702895267,-20.08,1
43.515625,-0.10857941368466173,-21.78,1
43.53125,-0.07104620842414716,-24.13,1
43.546875,-0.035360101530649744,-27.03,1
43.5625,0.011162708199499584,-29.98,1
43.578125,0.07176239877083651,-32.19,1
43.59375,0.1389267557355416,-32.77,1
43.609375,0.22119044415472428,-31.06,1
43.625,0.32810743089090205,-26.91,1
43.640625,0.41575192968334374,-20.82,1
43.65625,0.4533942826410248,-13.75,1
43.671875,0.3321113258894599,-6.86,1
43.6875,0.1033130496480689,-1.14,1
43.703125,-0.11484159081013906,2.93,1
43.71875,-0.25297499132504503,5.34,1
43.734375,-0.29514801988280187,6.49,1
43.75,-0.2977536492527611,6.89,1
43.765625,-0.2810287060374165,7.02,1
43.78125,-0.26637326351835017,7.2,1
43.796875,-0.2393833382490495,7.57,1
43.8125,-0.2248243023594672,8.2,1
43.828125,-0.19811940512176737,9.06,1
43.84375,-0.16216034990626604,10.09,1
43.859375,-0.1560298400974326,11.16,1
43.875,-0.13631561583754478,12.15,1
43.890625,-0.12393014422221134,12.96,1
43.90625,-0.09879521590312318,13.5,1
43.921875,-0.10248576330909037,13.76,1
43.9375,-0.09287921087532941,13.8,1
43.953125,-0.08728901544757389,13.71,1
43.96875,-0.10081312988242662,13.62,1
43.984375,-0.08061525194949931,13.66,1
44.0,-0.06729259617958974,13.91,1
44.015625,-0.06889588605293934,14.4,1
44.03125,-0.055884564074224374,14.99,1
44.046875,-0.04488937977519957,15.47,1
44.0625,-0.037277438950288434,15.62,1
44.078125,-0.034701974375061014,15.3,1
44.09375,-0.015883009611286632,14.51,1
44.109375,-0.0265072237702409,13.41,1
44.125,-0.014103529632600184,12.22,1
44.140625,-0.009390617264318757,11.13,1
44.15625,-0.0035568635645014833,10.27,1
44.171875,0.006209926562718174,9.65,1
44.1875,0.004017005218354094,9.21,1
44.203125,0.01876528163922103,8.84,1
44.21875,0.016078396569356557,8.42,1
44.234375,0.015464318997301071,7.9,1
44.25,0.03011544414259094,7.27,1
44.265625,0.02998260652850799,6.55,1
44.28125,0.02178389002704681,5.81,1
44.296875,0.03553829825018929,5.15,1
44.3125,0.03022366034130285,4.64,1
44.328125,0.04022209456874495,4.29,1
44.34375,0.043164549152407174,4.08,1
44.359375,0.04227111813648109,3.9,1
44.375,0.041618648011677035,3.62,1
44.390625,0.04144945666218198,3.11,1
44.40625,0.05747230508150879,2.3,1
44.421875,0.05005853590390102,1.2,1
44.4375,0.06402445633274427,-0.1,1
44.453125,0.060470660439105706,-1.45,1
44.46875,0.1431452448992178,-2.68,1
44.484375,0.10678670282072024,-3.71,1
44.5,0.06119055422834104,-4.57,1
44.515625,0.009236186304915826,-5.38,1
44.53125,0.02535716812726021,-6.29,1
44.546875,-0.007767885942880483,-7.41,1
44.5625,0.0500535603205372,-8.74,1
44.578125,-0.17448183997386288,-10.19,1
44.59375,0.21015694240966853,-11.64,1
44.609375,1.5624528241151938,-12.98,1
44.625,0.8248585537829571,-14.16,1
44.640625,-0.10193020585320732,-15.19,1
44.65625,-0.04151299054947088,-16.14,1
44.671875,-0.2069535880991722,-17.08,1
44.6875,-0.16423052920420467,-18.14,1
44.703125,-0.16960562842272642,-19.47,1
44.71875,-0.12051973774698167,-21.25,1
44.734375,-0.09685874524441733,-23.57,1
44.75,-0.06090420799952153,-26.33,1
44.765625,-0.0319703892163135,-29.14,1
44.78125,0.03348520901485637,-31.29,1
44.796875,0.08231536469020075,-31.96,1
44.8125,0.15849932412722992,-30.49,1
44.828125,0.23687551324762687,-26.64,1
44.84375,0.36009693435603946,-20.81,1
44.859375,0.4530882474699175,-13.87,1
44.875,0.5211193273589392,-6.97,1
44.890625,0.46599439639942863,-1.13,1
44.90625,0.2412431066077128,3.07,1
44.921875,-0.019475410511885213,5.51,1
44.9375,-0.22159413894441432,6.55,1
44.953125,-0.3019863347758009,6.73,1
44.96875,-0.3422821437176997,6.6,1
44.984375,-0.3175043151383811,6.61,1
45.0,-0.29762642790023114,6.97,1
45.015625,-0.28849553808554745,7.72,1
45.03125,-0.2579066478339184,8.77,1
45.046875,-0.22803363118536185,9.93,1
45.0625,-0.2038748654441652,11.02,1
45.078125,-0.18442141008579174,11.95,1
45.09375,-0.17394674324042236,12.67,1
45.109375,-0.16070194795521917,13.19,1
45.125,-0.1407111833229976,13.56,1
45.140625,-0.13257649161246188,13.85,1
45.15625,-0.14052991111139718,14.12,1
45.171875,-0.13418277506733955,14.44,1
45.1875,-0.12758394784943267,14.86,1
45.203125,-0.12618895826680773,15.35,1
45.21875,-0.10923202740830464,15.82,1
45.234375,-0.11506323086601297,16.11,1
45.25,-0.09855896809618603,16.1,1
45.265625,-0.09136643267536336,15.74,1
45.28125,-0.08224542357631609,15.1,1
45.296875,-0.0825759084114318,14.3,1
45.3125,-0.06624324142078641,13.5,1
45.328125,-0.06055624147547658,12.77,1
45.34375,-0.05924958083423587,12.12,1
45.359375,-0.0492415420467084,11.48,1
45.375,-0.05362261575516956,10.81,1
45.390625,-0.03762186721668087,10.09,1
45.40625,-0.03833082138065654,9.32,1
45.421875,-0.03035605939035846,8.53,1
45.4375,-0.02992354827457569,7.74,1
45.453125,-0.024172719590377794,6.97,1
45.46875,-0.0023849155114590323,6.29,1
45.484375,-0.016058182854268088,5.74,1
45.5,-0.009504255386214808,5.37,1
45.515625,-0.010831394791943023,5.17,1
45.53125,0.009647651631442494,5.05,1
45.546875,0.0162923483763916,4.89,1
45.5625,0.06994566341367409,4.6,1
45.578125,0.08320081850700194,4.11,1
45.59375,0.009534045390119676,3.47,1
45.609375,-0.0226288741672533,2.74,1
45.625,-0.04377012676036695,1.98,1
45.640625,-0.03275622711762759,1.22,1
45.65625,-0.02343729076297799,0.42,1
45.671875,-0.10514226462335162,-0.44,1
45.6875,-0.16738964838390136,-1.33,1
45.703125,1.254691022321299,-2.19,1
45.71875,1.3267647555486217,-2.96,1
45.734375,-0.008275271040356521,-3.62,1
45.75,-0.10902998732806565,-4.25,1
45.765625,-0.202314256400185,-4.99,1
45.78125,-0.2368719325662127,-5.97,1
45.796875,-0.21305698143023155,-7.24,1
45.8125,-0.18780868992294286,-8.76,1
45.828125,-0.15048098776873933,-10.4,1
45.84375,-0.11728965521582731,-11.98,1
45.859375,-0.07340198285672125,-13.37,1
45.875,-0.031012420533079198,-14.5,1
45.890625,0.016041202962762843,-15.41,1
45.90625,0.0753028165427286,-16.22,1
45.921875,0.17534764442303763,-17.14,1
45.9375,0.26248908191516857,-18.44,1
45.953125,0.35858633729312545,-20.29,1
45.96875,0.43907184427721785,-22.73,1
45.984375,0.44261359103894365,-25.49,1
46.0,0.27893790065708773,-28.03,1
46.015625,0.02258914526661518,-29.57,1
46.03125,-0.18377549213375288,-29.35,1
46.046875,-0.29623349553611844,-26.94,1
46.0625,-0.3202611171014905,-22.38,1
46.078125,-0.31160986585454004,-16.21,1
46.09375,-0.2957695180126538,-9.37,1
46.109375,-0.2786526486359877,-2.89,1
46.125,-0.24591814199487166,2.39,1
46.140625,-0.22375062630226455,6.07,1
46.15625,-0.20440250131903878,8.14,1
46.171875,-0.1741613215667898,8.92,1
46.1875,-0.1541477570834317,8.85,1
46.203125,-0.14258694991321194,8.38,1
46.21875,-0.1116337421604038,7.84,1
46.234375,-0.10894168159038334,7.45,1
46.25,-0.09735398894934058,7.36,1
46.265625,-0.09727685128620064,7.66,1
46.28125,-0.1001084496995787,8.33,1
46.296875,-0.08278025297125939,9.28,1
46.3125,-0.08002503937105539,10.37,1
46.328125,-0.07301893032652619,11.38,1
46.34375,-0.05966151623153215,12.13,1
46.359375,-0.05294427763506253,12.55,1
46.375,-0.03746757269243199,12.68,1
46.390625,-0.029626904629820008,12.65,1
46.40625,-0.028919932899665813,12.67,1
46.421875,-0.02328539432256645,12.86,1
46.4375,-0.01287789878326458,13.27,1
46.453125,-0.013609276811142214,13.79,1
46.46875,-0.005592070140310988,14.26,1
46.484375,-0.0026040439671994563,14.49,1
46.5,-1.883885885953691e-05,14.33,1
46.515625,0.008920474855845625,13.76,1
46.53125,0.012076856658559175,12.85,1
46.546875,0.011627871072256962,11.73,1
46.5625,0.013815611734004956,10.54,1
46.578125,0.026107476183735073,9.36,1
46.59375,0.02837059455253713,8.18,1
46.609375,0.02663299339843321,6.93,1
46.625,0.0251877996665706,5.54,1
46.640625,0.02266810882896548,4.05,1
46.65625,0.04307316509012127,2.55,1
46.671875,0.03988595527341524,1.23,1
46.6875,0.05555772984414335,0.23,1
46.703125,0.05485057348368734,-0.35,1
46.71875,0.15206689080457603,-0.58,1
46.734375,0.1019296844105752,-0.6,1
46.75,0.05286254377107577,-0.6,1
46.765625,-0.006470734084645168,-0.73,1
46.78125,0.021441649578159815,-1.05,1
46.796875,-0.017798894256154024,-1.59,1
46.8125,0.05684961682428702,-2.29,1
46.828125,-0.23370345420602995,-3.09,1
46.84375,0.3908765302067229,-3.92,1
46.859375,1.6603657224052897,-4.79,1
46.875,0.7423096325345655,-5.72,1
46.890625,-0.056116634768922556,-6.81,1
46.90625,-0.10871452753581112,-8.12,1
46.921875,-0.23800653862061896,-9.68,1
46.9375,-0.19982820030555545,-11.42,1
46.953125,-0.19044889080487915,-13.19,1
46.96875,-0.141718739099713,-14.79,1
46.984375,-0.12079101352373617,-16.08,1
47.0,-0.07352182228443527,-17.05,1
47.015625,-0.05399249381405873,-17.9,1
47.03125,0.009944900517228935,-18.91,1
47.046875,0.05568716548751688,-20.38,1
47.0625,0.11654450616131819,-22.46,1
47.078125,0.20110465506452305,-25.02,1
47.09375,0.29674908046273246,-27.6,1
47.109375,0.39007675240921474,-29.51,1
47.125,0.4542318015173882,-29.96,1
47.140625,0.40275549374957975,-28.4,1
47.15625,0.19961801693748052,-24.65,1
47.171875,-0.042582942039546504,-19.11,1
47.1875,-0.20362294774658016,-12.57,1
47.203125,-0.2838545153070267,-6.04,1
47.21875,-0.29830610204277846,-0.41,1
47.234375,-0.28232689264862115,3.78,1
47.25,-0.2706379959640016,6.41,1
47.265625,-0.2439912198093727,7.71,1
47.28125,-0.22832582752654715,8.14,1
47.296875,-0.20457859361462186,8.17,1
47.3125,-0.1840917349398539,8.22,1
47.328125,-0.1546565730848707,8.53,1
47.34375,-0.13475581541518708,9.19,1
47.359375,-0.12244627366958087,10.13,1
47.375,-0.11643523613034168,11.18,1
47.390625,-0.0934172085906461,12.15,1
47.40625,-0.09688638709640061,12.91,1
47.421875,-0.0984974853462661,13.41,1
47.4375,-0.0817350301238215,13.66,1
47.453125,-0.08618020030268946,13.73,1
47.46875,-0.07677294072266544,13.73,1
47.484375,-0.0797392782970379,13.75,1
47.5,-0.05743045217898631,13.87,1
47.515625,-0.05884381445499955,14.16,1
47.53125,-0.03849372177212455,14.6,1
47.546875,-0.038519371620054414,15.1,1
47.5625,-0.039437854383166354,15.5,1
47.578125,-0.02281220809536068,15.63,1
47.59375,-0.023297490636371945,15.41,1
47.609375,-0.025206854291805716,14.84,1
47.625,-0.01837322579075079,14.03,1
47.640625,-0.01896027695366626,13.1,1
47.65625,-0.0002294098481025651,12.13,1
47.671875,-0.007999285728280032,11.17,1
47.6875,-0.00022734097675860472,10.23,1
47.703125,-0.00719600045426312,9.3,1
47.71875,0.008296753713716468,8.42,1
47.734375,0.01562546694870976,7.64,1
47.75,0.011011449930630798,7.02,1
47.765625,0.016716404555727385,6.59,1
47.78125,0.01973749323485647,6.35,1
47.796875,0.025615993195886227,6.23,1
47.8125,0.03760311299787338,6.12,1
47.828125,0.01953462571228359,5.89,1
47.84375,0.03786598776410832,5.45,1
47.859375,0.01796678803192269,4.74,1
47.875,0.05537176258207967,3.8,1
47.890625,0.04097324595968323,2.69,1
47.90625,0.11892355657866459,1.47,1
47.921875,0.12049561960831479,0.22,1
47.9375,0.04982717279251209,-1.03,1
47.953125,0.0077713429319086445,-2.24,1
47.96875,0.0025667719127940814,-3.37,1
47.984375,-0.012753850237090733,-4.36,1
48.0,0.03290083115679105,-5.24,1
48.015625,-0.14686145939513273,-6.09,1
48.03125,0.003506003774954523,-7.07,1
48.046875,1.4552144450648545,-8.3,1
48.0625,1.1463937517930993,-9.84,1
48.078125,0.02078651796209301,-11.58,1
48.09375,-0.0902313762421522,-13.32,1
48.109375,-0.22221382943365933,-14.85,1
48.125,-0.2214402005983241,-16.06,1
48.140625,-0.2091253567525956,-17.03,1
48.15625,-0.18204499374305305,-17.96,1
48.171875,-0.14862480475064035,-19.17,1
48.1875,-0.10478762801948294,-20.94,1
48.203125,-0.06434573284376355,-23.42,1
48.21875,-0.02462029821066148,-26.49,1
48.234375,0.029570241296041952,-29.71,1
48.25,0.08310797593614103,-32.32,1
48.265625,0.1676718887564824,-33.49,1
48.28125,0.2638327185576861,-32.48,1
48.296875,0.3646198386379072,-29.0,1
48.3125,0.44957640147140954,-23.34,1
48.328125,0.4640972874381716,-16.3,1
48.34375,0.28939392355030835,-9.0,1
48.359375,0.06507107470761683,-2.52,1
48.375,-0.14218375419450754,2.43,1
48.390625,-0.2423850685285748,5.61,1
48.40625,-0.2778241715060212,7.23,1
48.421875,-0.2627320131808875,7.74,1
48.4375,-0.2567706567337273,7.69,1
48.453125,-0.2286079676274894,7.53,1
48.46875,-0.2041957491344263,7.57,1
48.484375,-0.18983349793076149,7.96,1
48.5,-0.17325303388473084,8.72,1
48.515625,-0.14651140397462642,9.73,1
48.53125,-0.12912973817406076,10.83,1
48.546875,-0.11643727767379061,11.86,1
48.5625,-0.100415762280611,12.67,1
48.578125,-0.09020666065507915,13.22,1
48.59375,-0.0947458477654654,13.51,1
48.609375,-0.08578227093426544,13.58,1
48.625,-0.07186061829624574,13.51,1
48.640625,-0.07391499314526084,13.38,1
48.65625,-0.07051639288866814,13.25,1
48.671875,-0.05928543706657844,13.24,1
48.6875,-0.06147057713069726,13.41,1
48.703125,-0.03913399728324478,13.79,1
48.71875,-0.03738319974106461,14.32,1
48.734375,-0.029341850574788643,14.82,1
