time_s,ecg,ppg,label
0.0,0.02706715605450372,-109.34,1
0.015625,0.044059321709515376,-102.8,1
0.03125,0.06146960097948257,-96.55,1
0.046875,0.07209149246231969,-90.06,1
0.0625,0.07214571818680238,-83.19,1
0.078125,0.08447812145569111,-76.59,1
0.09375,0.07186734986116891,-71.29,1
0.109375,0.07272654601762418,-68.04,1
0.125,0.0678648072729152,-66.62,1
0.140625,0.07505053064413662,-65.74,1
0.15625,0.08400384069094224,-63.41,1
0.171875,0.048155107137227406,-57.67,1
0.1875,0.03786691230262484,-47.58,1
0.203125,0.04245758302317081,-33.58,1
0.21875,0.06170104643100685,-17.37,1
0.234375,0.05848691744918936,-1.16,1
0.25,0.08401109123907205,13.32,1
0.265625,0.09788812412189253,25.33,1
0.28125,0.10011883711430322,35.14,1
0.296875,0.10150267521693833,43.44,1
0.3125,0.09061179461370696,50.55,1
0.328125,0.09563463245561755,56.1,1
0.34375,0.08073834572821388,59.18,1
0.359375,0.08785143631125884,59.0,1
0.375,0.09418449640454449,55.53,1
0.390625,0.1337813909747349,49.71,1
0.40625,0.14955460516722138,43.07,1
0.421875,0.08469042302465324,37.14,1
0.4375,0.03467922698799749,32.9,1
0.453125,0.016185375455714898,30.52,1
0.46875,-0.010455266991533008,29.56,1
0.484375,-0.019138177409902892,29.31,1
0.5,0.14835459510788285,29.18,1
0.515625,0.47291798471940494,28.91,1
0.53125,0.46959447404607146,28.64,1
0.546875,0.09936711684002879,28.85,1
0.5625,-0.14563944058601205,30.17,1
0.578125,-0.21107848534032148,33.18,1
0.59375,-0.19860284101247033,38.08,1
0.609375,-0.17713106758190406,44.48,1
0.625,-0.16135940316925276,51.32,1
0.640625,-0.17293213305628868,57.12,1
0.65625,-0.15703249868710412,60.45,1
0.671875,-0.16597904504569289,60.49,1
0.6875,-0.15778517917378238,57.44,1
0.703125,-0.16126477362548336,52.54,1
0.71875,-0.18013480918212785,47.6,1
0.734375,-0.17828718575358707,44.31,1
0.75,-0.153786650536134,43.55,1
0.765625,-0.08631219677000875,45.0,1
0.78125,-0.003767399367951583,47.46,1
0.796875,0.044570851352181605,49.47,1
0.8125,0.05914192427161208,50.2,1
0.828125,0.05515071161764515,49.79,1
0.84375,0.04860747353232234,49.35,1
0.859375,0.04097668457682652,50.33,1
0.875,0.027985927035084783,53.89,1
0.890625,-0.004537139116076245,60.36,1
0.90625,0.02636104741113888,69.21,1
0.921875,0.026554782895979966,79.11,1
0.9375,0.04164747236428106,88.21,1
0.953125,0.024176277414249044,94.31,1
0.96875,0.024134924242647432,95.35,1
0.984375,0.025811263319468643,89.98,1
1.0,0.059310456148776364,78.23,1
1.015625,0.04102307486309933,61.54,1
1.03125,0.055403173371867405,42.18,1
1.046875,0.07274363015050739,22.09,1
1.0625,0.07497904788482396,2.12,1
1.078125,0.06969050695327839,-17.96,1
1.09375,0.057256805251809026,-38.43,1
1.109375,0.04949360207348066,-58.35,1
1.125,0.05219264756603807,-75.01,1
1.140625,0.05768797466389369,-84.72,1
1.15625,0.07892487638178117,-84.53,1
1.171875,0.07447701646650001,-74.21,1
1.1875,0.04655737284552447,-56.98,1
1.203125,0.05609285369017219,-38.86,1
1.21875,0.09593369956183921,-26.83,1
1.234375,0.1570504997202443,-26.97,1
1.25,0.1750624409051947,-43.12,1
1.265625,0.09981877875835903,-76.15,1
1.28125,0.04556075608382983,-123.53,1
1.296875,0.005542801628276447,-179.29,1
1.3125,-0.0013563388155753463,-234.77,1
1.328125,-0.009771089790651789,-280.03,1
1.34375,0.19703093445336195,-306.4,1
1.359375,0.5668674795771433,-309.08,1
1.375,0.42211091619492824,-288.79,1
1.390625,0.07435214167806382,-251.44,1
1.40625,-0.12684885616023073,-205.9,1
1.421875,-0.15007985151329026,-160.72,1
1.4375,-0.1688324308400907,-121.5,1
1.453125,-0.16421853564944253,-89.82,1
1.46875,-0.13915660312768394,-64.19,1
1.484375,-0.12285813362659943,-42.57,1
1.5,-0.106648353077631,-24.63,1
1.515625,-0.10506162395460739,-12.93,1
1.53125,-0.09812332545990529,-12.0,1
1.546875,-0.12407553477693357,-25.75,1
1.5625,-0.14226227814635356,-54.27,1
1.578125,-0.13749017331909127,-91.87,1
1.59375,-0.11245028711923463,-127.96,1
1.609375,-0.06090595288714572,-150.81,1
1.625,0.023081392053086416,-152.79,1
1.640625,0.06571576175821182,-133.97,1
1.65625,0.0871314983689858,-101.95,1
1.671875,0.061629301266305954,-67.65,1
1.6875,0.043167992858730436,-39.6,1
1.703125,0.03282382039870518,-20.0,1
1.71875,0.015832721586133358,-4.89,1
1.734375,0.01630478859698285,11.93,1
1.75,0.013786620892062193,33.85,1
1.765625,0.02535965049645682,58.74,1
1.78125,0.024195156415840455,80.22,1
1.796875,0.035355966239164684,91.86,1
1.8125,0.02662696522096502,91.22,1
1.828125,0.030359096635760717,81.21,1
1.84375,0.019173185658170173,68.21,1
1.859375,0.02818316544373343,58.14,1
1.875,0.029300527315543244,53.57,1
1.890625,0.03586033621301789,53.2,1
1.90625,0.023887032412715253,53.64,1
1.921875,0.0150168818087885,52.17,1
1.9375,0.021217356013680484,48.39,1
1.953125,0.014580184106401195,44.28,1
1.96875,0.01631621924397758,43.06,1
1.984375,0.004014278835065381,47.75,1
2.0,0.011022947126464672,59.62,1
2.015625,0.004394851464337014,77.8,1
2.03125,0.01415196510375837,99.52,1
2.046875,0.024120238638211847,121.11,1
2.0625,0.053087143983942375,139.11,1
2.078125,0.12783446552435562,151.44,1
2.09375,0.08986608931774602,157.86,1
2.109375,0.034257765360750515,159.5,1
2.125,-0.020532793582265497,158.65,1
2.140625,-0.04978077900586031,157.27,1
2.15625,-0.052644327324764116,156.45,1
2.171875,-0.003363178016681589,156.45,1
2.1875,0.2734630054687688,157.2,1
2.203125,0.4830114370036866,158.76,1
2.21875,0.2694665808253259,161.5,1
2.234375,-0.0546357697163161,165.47,1
2.25,-0.19517222379677004,169.3,1
2.265625,-0.20405469499165935,170.7,1
2.28125,-0.1940114876552553,166.42,1
2.296875,-0.18458075765311333,154.14,1
2.3125,-0.17850660909206453,134.1,1
2.328125,-0.1621457260224853,109.85,1
2.34375,-0.1430995308147402,86.95,1
2.359375,-0.14368283908840443,70.99,1
2.375,-0.1606711595642488,64.96,1
2.390625,-0.1700333939354933,63.91,1
2.40625,-0.19515290249739667,61.43,1
2.421875,-0.17733197894175975,51.08,1
2.4375,-0.1372880658507887,30.21,1
2.453125,-0.06453736812320278,1.4,1
2.46875,0.010417422832003803,-29.08,1
2.484375,0.05195798683017624,-54.62,1
2.5,0.053904085961779986,-70.29,1
2.515625,0.03130161051083906,-73.88,1
2.53125,0.016270308733695282,-66.92,1
2.546875,0.013522991303855628,-52.57,1
2.5625,-0.004978456940777264,-35.69,1
2.578125,0.0018256280377257034,-21.61,1
2.59375,-0.000928730888370878,-16.28,1
2.609375,0.019291315056382048,-21.51,1
2.625,0.004693604521206628,-36.9,1
2.640625,0.02591111015610122,-59.47,1
2.65625,0.0068161260113667535,-84.11,1
2.671875,-0.0026899237222108813,-106.24,1
2.6875,0.00829290149081399,-122.04,1
2.703125,0.012436784563522147,-130.41,1
2.71875,0.009551525900498996,-133.03,1
2.734375,0.0062562671912914395,-133.77,1
2.75,0.006388292890201643,-137.2,1
2.765625,-0.0007064782475273251,-147.37,1
2.78125,0.004330922074877265,-166.68,1
2.796875,0.019845158682460614,-189.19,1
2.8125,0.00033001998848468747,-208.95,1
2.828125,0.015160494684723476,-218.6,1
2.84375,0.022378364165942338,-212.16,1
2.859375,0.07506338264928633,-187.58,1
2.875,0.12408158492581843,-148.23,1
2.890625,0.09315112856001845,-102.07,1
2.90625,0.023680514387451525,-59.24,1
2.921875,-0.019132423175622665,-28.11,1
2.9375,-0.05255202999156966,-12.32,1
2.953125,-0.010057499632567,-10.85,1
2.96875,-0.02032206215315681,-18.03,1
2.984375,0.2816167782151265,-26.5,1
3.0,0.3494211694077231,-29.91,1
3.015625,0.24908386130303378,-24.6,1
3.03125,0.011658171346893521,-10.01,1
3.046875,-0.17308630169122516,11.51,1
3.0625,-0.14936676521456688,35.99,1
3.078125,-0.17143484401453626,58.92,1
3.09375,-0.12837575283559757,75.56,1
3.109375,-0.13797746613564896,82.76,1
3.125,-0.09830728771509334,79.25,1
3.140625,-0.11650372568296642,65.62,1
3.15625,-0.09523865246010058,44.14,1
3.171875,-0.10035872999973088,18.33,1
3.1875,-0.11286454090426874,-7.83,1
3.203125,-0.13854825895115283,-30.45,1
3.21875,-0.11639163683900634,-46.32,1
3.234375,-0.08222368248638165,-53.99,1
3.25,-0.00491645530737083,-53.5,1
3.265625,0.0474917828122221,-46.51,1
3.28125,0.08627511213163482,-35.83,1
3.296875,0.08041247000406136,-24.58,1
3.3125,0.06722879383723619,-15.29,1
3.328125,0.05177946984361729,-9.24,1
3.34375,0.04212459813529368,-6.31,1
3.359375,0.03823260665841657,-5.31,1
3.375,0.04574154274607185,-5.01,1
3.390625,0.017441447639152747,-4.6,1
3.40625,0.032953297580370355,-4.13,1
3.421875,0.02448451515868279,-4.41,1
3.4375,0.03856677049816294,-6.48,1
3.453125,0.016320112082730324,-11.05,1
3.46875,0.019668128260106988,-18.21,1
3.484375,0.022366697842987247,-27.38,1
3.5,0.027722300225588806,-37.51,1
3.515625,0.009529069898395652,-47.48,1
3.53125,0.01816023915068967,-56.22,1
3.546875,0.010331394125609692,-62.97,1
3.5625,0.011421126391964418,-67.24,1
3.578125,0.024750852826363114,-68.71,1
3.59375,0.08330933264954421,-67.06,1
3.609375,0.13363779015460284,-61.81,1
3.625,0.12581475793911934,-52.45,1
3.640625,0.043010973695868156,-38.66,1
3.65625,0.00597487153604339,-20.72,1
3.671875,-0.04056761254220705,0.29,1
3.6875,-0.03316934600287434,22.57,1
3.703125,-0.04241406370729223,44.07,1
3.71875,0.2443464441818534,62.95,1
3.734375,0.4514529602977385,77.96,1
3.75,0.2764060223450827,88.61,1
3.765625,0.04141341965802739,94.93,1
3.78125,-0.16716361971856875,97.34,1
3.796875,-0.16192599168549823,96.29,1
3.8125,-0.17861765546764194,92.34,1
3.828125,-0.17123053350807568,86.07,1
3.84375,-0.17250801097819649,78.2,1
3.859375,-0.13421651345754243,69.57,1
3.875,-0.12052002163529037,61.06,1
3.890625,-0.10424446321036815,53.43,1
3.90625,-0.11068408215720606,47.22,1
3.921875,-0.12026533933459935,42.66,1
3.9375,-0.1393187049139696,39.76,1
3.953125,-0.13091298203352114,38.49,1
3.96875,-0.10178064715646416,38.77,1
3.984375,-0.03725659753050115,40.57,1
4.0,0.03781908496408917,43.71,1
4.015625,0.06983367609737405,47.79,1
4.03125,0.07506735392006723,52.08,1
4.046875,0.0620905957677037,55.69,1
4.0625,0.06221712317332938,57.86,1
4.078125,0.04526869822756959,58.18,1
4.09375,0.03568715990931021,56.77,1
4.109375,0.04894985893489714,54.14,1
4.125,0.04622961579387885,50.9,1
4.140625,0.042590147215142954,47.47,1
4.15625,0.04216743118654664,43.79,1
4.171875,0.04377529142336254,39.45,1
4.1875,0.04355069682946953,33.93,1
4.203125,0.02836148616588123,26.94,1
4.21875,0.032080994866632614,18.68,1
4.234375,0.02273271548395626,9.79,1
4.25,0.04093797634783422,1.12,1
4.265625,0.017813914398618555,-6.62,1
4.28125,0.04597431583287095,-13.12,1
4.296875,0.06696273652001124,-18.56,1
4.3125,0.14030932031209264,-23.44,1
4.328125,0.15507453198815102,-28.43,1
4.34375,0.10139057336609036,-34.05,1
4.359375,0.006527510284262666,-40.44,1
4.375,-0.024183607328597978,-47.18,1
4.390625,-0.0496904984037427,-53.23,1
4.40625,-0.04331980913411139,-57.13,1
4.421875,0.07778518062199491,-57.32,1
4.4375,0.6295634135958325,-52.63,1
4.453125,0.5525858133777747,-42.71,1
4.46875,0.0028332909644682423,-28.28,1
4.484375,-0.1290264007708651,-10.98,1
4.5,-0.22631491091036304,7.01,1
4.515625,-0.1970375948963393,23.55,1
4.53125,-0.21986994828350728,37.1,1
4.546875,-0.17882588452612513,46.87,1
4.5625,-0.17092564614246325,52.79,1
4.578125,-0.14230646231741065,55.19,1
4.59375,-0.1442064363326805,54.47,1
4.609375,-0.12544196333897012,50.95,1
4.625,-0.1459362148982602,44.85,1
4.640625,-0.16001721284760204,36.55,1
4.65625,-0.16435601156362684,26.65,1
4.671875,-0.13205019956492595,16.08,1
4.6875,-0.07932485248446641,5.89,1
4.703125,-0.011271613287466438,-3.06,1
4.71875,0.031535517406297994,-10.28,1
4.734375,0.04410805509870135,-15.86,1
4.75,0.026557964523281522,-20.21,1
4.765625,0.011475502423018077,-23.82,1
4.78125,0.018118196860825705,-26.91,1
4.796875,0.01776007489085893,-29.4,1
4.8125,0.0032572177469155986,-31.0,1
4.828125,0.012041009366619306,-31.49,1
4.84375,-0.009006481372917397,-30.9,1
4.859375,0.013284795141291605,-29.47,1
4.875,0.014460641427644578,-27.44,1
4.890625,0.01254812107830081,-24.79,1
4.90625,0.015961461998010726,-21.3,1
4.921875,0.012621060271890668,-16.67,1
4.9375,-0.006733525559663236,-10.94,1
4.953125,0.005729443841930483,-4.61,1
4.96875,0.00903318406832831,1.51,1
4.984375,0.07593104686812464,6.65,1
5.0,0.1554839543521496,10.33,1
5.015625,0.12131734072108988,12.44,1
5.03125,0.03577786570750737,12.79,1
5.046875,-0.04346129176056425,10.83,1
5.0625,-0.06199449293963794,5.57,1
5.078125,-0.07338962729557122,-3.87,1
5.09375,-0.04717431304220609,-17.46,1
5.109375,0.3267158133573135,-33.61,1
5.125,0.6437078802870281,-49.31,1
5.140625,0.18617585343104434,-60.96,1
5.15625,-0.10973243721428154,-65.63,1
5.171875,-0.2018541569165151,-62.16,1
5.1875,-0.2224078716062123,-51.41,1
5.203125,-0.2169604328845345,-35.79,1
5.21875,-0.1970152204993689,-18.3,1
5.234375,-0.1768757370923067,-1.55,1
5.25,-0.15477968320487986,12.82,1
5.265625,-0.14072446503698205,24.31,1
5.28125,-0.142062093986227,33.33,1
5.296875,-0.14595274597957344,40.89,1
5.3125,-0.15974040839828885,48.08,1
5.328125,-0.15953476180648293,55.62,1
5.34375,-0.16397465769455663,63.55,1
5.359375,-0.1268907986752985,71.11,1
5.375,-0.059265227231134414,76.99,1
5.390625,0.015241579639725458,79.78,1
5.40625,0.05037933357158307,78.56,1
5.421875,0.03249130692289773,73.21,1
5.4375,0.03565014994930416,64.52,1
5.453125,0.017472111335155936,53.83,1
5.46875,0.019316522671872192,42.67,1
5.484375,0.010317716991372062,32.41,1
5.5,-0.00028992898030498487,23.92,1
5.515625,0.007063856391760253,17.67,1
5.53125,0.023638736900500702,13.71,1
5.546875,0.033490797483485095,11.73,1
5.5625,0.0295334098106393,11.21,1
5.578125,0.03517986041311804,11.38,1
5.59375,0.033545921202908786,11.36,1
5.609375,0.03685389678293984,10.21,1
5.625,0.029538640972976583,7.17,1
5.640625,0.026263178749045976,1.83,1
5.65625,0.05613646273060907,-5.54,1
5.671875,0.10656376928092717,-14.0,1
5.6875,0.1596781295417828,-22.04,1
5.703125,0.1687388779366191,-28.09,1
5.71875,0.09345098419741597,-31.2,1
5.734375,0.034709016214154294,-31.48,1
5.75,0.0019675608519200295,-30.3,1
5.765625,-0.0024007037036768916,-29.75,1
5.78125,0.023688827115071146,-31.79,1
5.796875,0.24952902652601566,-37.3,1
5.8125,0.5072618936087805,-45.6,1
5.828125,0.39399835076806156,-54.63,1
5.84375,0.0573769252223756,-61.74,1
5.859375,-0.12642355482117143,-64.72,1
5.875,-0.15464125096653503,-62.48,1
5.890625,-0.15811224078759584,-55.29,1
5.90625,-0.14511132612802727,-44.31,1
5.921875,-0.130271592744232,-31.06,1
5.9375,-0.11456523362757493,-16.91,1
5.953125,-0.09782195787023948,-3.01,1
5.96875,-0.10539444542932823,9.62,1
5.984375,-0.11164138379694678,19.94,1
6.0,-0.13586290539980894,27.02,1
6.015625,-0.1482279885767734,30.29,1
6.03125,-0.15606543048157323,29.82,1
6.046875,-0.13123422390249195,26.36,1
6.0625,-0.07433739068303585,21.09,1
6.078125,0.014372267725345724,15.28,1
6.09375,0.05112210341664269,9.91,1
6.109375,0.06285605262005213,5.61,1
6.125,0.04603359476612431,2.64,1
6.140625,0.030218964618423005,0.96,1
6.15625,0.01328444818825945,0.26,1
6.171875,-0.015033360394640058,0.09,1
6.1875,-0.013496893615448362,-0.04,1
6.203125,-0.02626778818410958,-0.46,1
6.21875,-0.019134815205544012,-1.15,1
6.234375,-0.029756749190040666,-1.81,1
6.25,-0.029337537066421008,-1.99,1
6.265625,-0.032939777236449204,-1.47,1
6.28125,-0.054906633567756165,-0.39,1
6.296875,-0.03190827330601697,0.69,1
6.3125,-0.03778751865838628,1.15,1
6.328125,0.015225251565051187,0.61,1
6.34375,0.07048650642964116,-0.8,1
6.359375,0.08293668590979754,-2.4,1
6.375,-0.002296070878969865,-3.29,1
6.390625,-0.03843549909365606,-2.76,1
6.40625,-0.0881358821159089,-0.66,1
6.421875,-0.04067392104399403,2.41,1
6.4375,-0.055521434323207046,5.19,1
6.453125,0.21089289626591834,6.18,1
6.46875,0.29265991458009755,4.21,1
6.484375,0.1834586885029481,-0.99,1
6.5,0.09734233944985353,-8.63,1
6.515625,-0.15364831556828507,-16.98,1
6.53125,-0.1338317648562887,-24.02,1
6.546875,-0.17304882547885686,-28.11,1
6.5625,-0.12440073596746387,-28.48,1
6.578125,-0.1229943471192451,-25.33,1
6.59375,-0.09732937203832498,-19.51,1
6.609375,-0.09236336584115687,-12.07,1
6.625,-0.0735792819061167,-4.02,1
6.640625,-0.08948819366223953,3.79,1
6.65625,-0.0902785514582722,10.6,1
6.671875,-0.09756572962655623,15.64,1
6.6875,-0.06778697946099525,18.4,1
6.703125,-0.042087634756129526,18.75,1
6.71875,0.007932020427686648,17.1,1
6.734375,0.052844831029123795,14.34,1
6.75,0.0864705497621152,11.43,1
6.765625,0.07916205921202335,9.08,1
6.78125,0.07833513676573046,7.58,1
6.796875,0.059644114406958736,6.82,1
6.8125,0.057864092028221015,6.49,1
6.828125,0.039977144447056495,6.28,1
6.84375,0.05146569715232907,5.95,1
6.859375,0.03629584080298242,5.3,1
6.875,0.056730493803446636,4.17,1
6.890625,0.03324173292322088,2.45,1
6.90625,0.055452420332963624,0.19,1
6.921875,0.04459998842455086,-2.29,1
6.9375,0.04189244888104053,-4.47,1
6.953125,0.055084887121111765,-5.76,1
6.96875,0.10880444976244856,-5.83,1
6.984375,0.15993326347862005,-4.7,1
7.0,0.13886543288251138,-2.85,1
7.015625,0.03885146769220116,-0.94,1
7.03125,0.002779861480690343,0.36,1
7.046875,-0.02273081670486693,0.73,1
7.0625,0.010658559581214089,0.18,1
7.078125,0.0059259980608705395,-1.02,1
7.09375,0.3689966319457542,-2.68,1
7.109375,0.22454269933899626,-4.94,1
7.125,0.1812383703704138,-8.45,1
7.140625,0.019456277108212964,-14.07,1
7.15625,-0.14221446445322547,-22.44,1
7.171875,-0.11280855320354273,-33.34,1
7.1875,-0.13340219669812373,-45.39,1
7.203125,-0.09708586055611182,-56.15,1
7.21875,-0.10606120972335982,-62.89,1
7.234375,-0.06969861262841957,-63.38,1
7.25,-0.06610511158913328,-56.8,1
7.265625,-0.04926264630501974,-43.95,1
7.28125,-0.07091298980470968,-27.02,1
7.296875,-0.06840125699204175,-8.78,1
7.3125,-0.07370504880193385,8.19,1
7.328125,-0.04121308488463323,22.11,1
7.34375,0.0057878780556258275,32.23,1
7.359375,0.04231010360099815,38.67,1
7.375,0.07677898553820045,42.11,1
7.390625,0.08590190169990918,43.48,1
7.40625,0.07493519555735675,43.73,1
7.421875,0.0714811207614822,43.61,1
7.4375,0.03678846220324456,43.63,1
7.453125,0.04061758717287669,43.87,1
7.46875,0.04853240766235885,44.13,1
7.484375,0.03476983765858141,43.98,1
7.5,0.027329965009099445,42.93,1
7.515625,0.04313794025145408,40.64,1
7.53125,0.025478804120299143,36.98,1
7.546875,0.024151366179771473,32.05,1
7.5625,0.016471400453761113,26.18,1
7.578125,0.006259211072934308,19.85,1
7.59375,0.02193146259090937,13.6,1
7.609375,0.05452036143749945,7.93,1
7.625,0.11431245727310048,3.11,1
7.640625,0.15488070155639572,-0.82,1
7.65625,0.06799504372310704,-3.98,1
7.671875,0.021523670800960817,-6.47,1
7.6875,-0.031675905884068496,-8.22,1
7.703125,-0.02250147163246283,-8.93,1
7.71875,-0.05806100226184184,-8.25,1
7.734375,0.16070199808018742,-6.21,1
7.75,0.4125512410716181,-3.36,1
7.765625,0.2281368228650423,-0.85,1
7.78125,0.09804253383311387,-0.06,1
7.796875,-0.11716847820027118,-2.16,1
7.8125,-0.14989818299341792,-7.6,1
7.828125,-0.1553062591205157,-15.89,1
7.84375,-0.1417045276075464,-25.68,1
7.859375,-0.11640903253491973,-35.08,1
7.875,-0.1080117814012098,-42.1,1
7.890625,-0.08923377297278302,-45.09,1
7.90625,-0.0805294716267953,-43.13,1
7.921875,-0.06291469078337417,-36.23,1
7.9375,-0.0651094040190022,-25.3,1
7.953125,-0.06866510885263202,-11.95,1
7.96875,-0.07527156471632251,1.88,1
7.984375,-0.05806560190889577,14.42,1
8.0,-0.004396789129844448,24.38,1
8.015625,0.04714033003406516,31.11,1
8.03125,0.08252182879797264,34.54,1
8.046875,0.08352213496242246,35.0,1
8.0625,0.06661857193500731,33.09,1
8.078125,0.06909406218245603,29.56,1
8.09375,0.04700597420332718,25.17,1
8.109375,0.04503863552101249,20.7,1
8.125,0.03445745839907786,16.79,1
8.140625,0.04808445706731119,13.84,1
8.15625,0.03217761060150965,11.97,1
8.171875,0.03827659870158453,11.1,1
8.1875,0.024567329889204837,11.03,1
8.203125,0.016886034610065083,11.58,1
8.21875,0.01339795287300299,12.61,1
8.234375,0.004106785683584303,13.98,1
8.25,0.021914685962273753,15.54,1
8.265625,0.0703195286923102,17.1,1
8.28125,0.14122638741542365,18.46,1
8.296875,0.11567590470271463,19.47,1
8.3125,0.04864759942848201,20.02,1
8.328125,-0.015456069082403491,19.97,1
8.34375,-0.04159228858050357,19.16,1
8.359375,-0.054695160959028884,17.49,1
8.375,-0.0028594908704034877,15.0,1
8.390625,0.3989582312334724,11.96,1
8.40625,0.6756396724509748,8.85,1
8.421875,0.1687629799018548,6.03,1
8.4375,-0.09498065130080273,3.6,1
8.453125,-0.19234306411710703,1.31,1
8.46875,-0.21020942736168718,-1.27,1
8.484375,-0.19496148927112672,-4.33,1
8.5,-0.19250103936655372,-7.53,1
8.515625,-0.16843429575217853,-10.01,1
8.53125,-0.1541719507659433,-10.85,1
8.546875,-0.12722379414594584,-9.48,1
8.5625,-0.13830919299265002,-6.07,1
8.578125,-0.13432736365134965,-1.4,1
8.59375,-0.14424538080314966,3.44,1
8.609375,-0.15277096291156528,7.5,1
8.625,-0.13840435467539028,10.21,1
8.640625,-0.09517442842137573,11.36,1
8.65625,-0.04115901151497243,10.94,1
8.671875,0.019085932108244143,9.12,1
8.6875,0.029768540035584382,6.13,1
8.703125,0.035517698248673464,2.3,1
8.71875,0.016919270704531978,-2.01,1
8.734375,0.01428555676083304,-6.61,1
8.75,0.007734852296423043,-11.47,1
8.765625,0.006503556989333362,-16.73,1
8.78125,0.0031875383795317,-22.42,1
8.796875,0.009997686613732099,-28.34,1
8.8125,0.00805887883720838,-33.94,1
8.828125,0.020994676596912,-38.54,1
8.84375,0.009166611622582243,-41.56,1
8.859375,0.010104689208781414,-42.75,1
8.875,-0.0019200476676358156,-42.2,1
8.890625,0.015329846749632618,-40.31,1
8.90625,0.03828489126787717,-37.6,1
8.921875,0.11960586820377325,-34.76,1
8.9375,0.1166809994748389,-32.48,1
8.953125,0.05775158837296834,-31.4,1
8.96875,-0.02063383255792982,-31.84,1
8.984375,-0.03944514773541026,-33.68,1
9.0,-0.0715839435198891,-36.4,1
9.015625,-0.05209877976960255,-39.36,1
9.03125,0.14458571162657552,-42.23,1
9.046875,0.6928344061491071,-45.21,1
9.0625,0.4502400876225328,-49.01,1
9.078125,-0.07055685742177531,-54.44,1
9.09375,-0.11856653392266284,-61.84,1
9.109375,-0.19280791855297227,-70.71,1
9.125,-0.15963924627449064,-79.67,1
9.140625,-0.18387284797437783,-86.88,1
9.15625,-0.1494617440560515,-90.7,1
9.171875,-0.13988330560519727,-90.13,1
9.1875,-0.11137937921456072,-85.03,1
9.203125,-0.11945289591036713,-75.9,1
9.21875,-0.11263290381219422,-63.59,1
9.234375,-0.1384849589171577,-48.95,1
9.25,-0.14030766532478112,-32.74,1
9.265625,-0.14504658302219048,-15.7,1
9.28125,-0.1003046272353796,1.32,1
9.296875,-0.05640078683581731,17.36,1
9.3125,0.004040433529740908,31.49,1
9.328125,0.029821677695314408,43.08,1
9.34375,0.033544122718283054,52.04,1
9.359375,0.02131127766540444,58.85,1
9.375,0.03429147772242674,64.34,1
9.390625,0.002903663019088822,69.29,1
9.40625,0.0076422360159181975,74.05,1
9.421875,0.012140895382069373,78.49,1
9.4375,0.0117830940091407,82.19,1
9.453125,0.009062452939590241,84.9,1
9.46875,0.01613370462921634,86.99,1
9.484375,0.011337566553172933,89.47,1
9.5,0.013473283750221969,93.64,1
9.515625,0.009398128996251299,100.3,1
9.53125,0.030638524818547508,109.02,1
9.546875,0.048623687848618966,118.0,1
9.5625,0.12187094820154061,124.6,1
9.578125,0.15710383031958955,126.47,1
9.59375,0.0968827307925617,122.73,1
9.609375,0.016155812882575397,114.34,1
9.625,-0.015554523084417298,103.74,1
9.640625,-0.03457401047353406,93.62,1
9.65625,-0.031922431601726926,85.76,1
9.671875,0.051223903559822294,80.33,1
9.6875,0.5107507929000975,76.14,1
9.703125,0.4983710771315088,71.47,1
9.71875,0.02009650467024769,64.97,1
9.734375,-0.11056840772084417,56.17,1
9.75,-0.19298471959892413,45.43,1
9.765625,-0.16595904214764126,33.62,1
9.78125,-0.1796482627711189,21.68,1
9.796875,-0.16527118318823067,10.47,1
9.8125,-0.15300209705710213,0.72,1
9.828125,-0.11908766849854785,-6.99,1
9.84375,-0.11188689760770208,-12.26,1
9.859375,-0.1196252568098828,-15.05,1
9.875,-0.11939282193448195,-15.71,1
9.890625,-0.12038945238862173,-14.92,1
9.90625,-0.13185689187709027,-13.48,1
9.921875,-0.10007036448076326,-12.09,1
9.9375,-0.04506656724282614,-11.14,1
9.953125,0.036796600594306283,-10.8,1
9.96875,0.06719158305923771,-11.01,1
9.984375,0.07225486696384667,-11.66,1
10.0,0.07157582668687315,-12.63,1
10.015625,0.06612617657623981,-13.87,1
10.03125,0.06557016470427862,-15.36,1
10.046875,0.05498282042981062,-17.14,1
10.0625,0.04880470283442048,-19.24,1
10.078125,0.04922709877540598,-21.6,1
10.09375,0.05980518988088721,-24.01,1
10.109375,0.05348268095584578,-26.17,1
10.125,0.04633513614115965,-27.73,1
10.140625,0.05540064279921467,-28.38,1
10.15625,0.04373007336769197,-27.98,1
10.171875,0.03258669282918969,-26.57,1
10.1875,0.03477702479546402,-24.33,1
10.203125,0.060088329636254545,-21.6,1
10.21875,0.12017888239350065,-18.79,1
10.234375,0.1441328574050507,-16.39,1
10.25,0.05131830447802519,-14.8,1
10.265625,-0.005458420800336558,-14.28,1
10.28125,-0.04888001239392165,-14.77,1
10.296875,-0.06036681891285186,-15.93,1
10.3125,-0.05975476718507355,-17.29,1
10.328125,0.13466186491388837,-18.57,1
10.34375,0.42353910787786136,-19.87,1
10.359375,0.3288362484751802,-21.72,1
10.375,0.043252447364617946,-24.81,1
10.390625,-0.152228070252853,-29.59,1
10.40625,-0.19087130317113324,-35.84,1
10.421875,-0.1977296391821557,-42.52,1
10.4375,-0.19457143311646705,-47.98,1
10.453125,-0.16913155093656468,-50.47,1
10.46875,-0.1618953517079727,-48.76,1
10.484375,-0.13351604715915175,-42.57,1
10.5,-0.1357092706031177,-32.63,1
10.515625,-0.11975908354589003,-20.41,1
10.53125,-0.13957036334118933,-7.63,1
10.546875,-0.1423012942103482,4.22,1
10.5625,-0.13879501698960905,14.17,1
10.578125,-0.11292119493633278,21.77,1
10.59375,-0.0628134251051359,27.06,1
10.609375,0.021957640813715273,30.34,1
10.625,0.058383632272419925,32.02,1
10.640625,0.0758685465275818,32.58,1
10.65625,0.06464359460359456,32.42,1
10.671875,0.05725719457491506,31.82,1
10.6875,0.04395400047778102,30.94,1
10.703125,0.04434939130767872,29.76,1
10.71875,0.036628617159009794,28.26,1
10.734375,0.034130355506216806,26.44,1
10.75,0.017876561660394596,24.39,1
10.765625,0.02161558611781203,22.3,1
10.78125,0.016088380569367094,20.36,1
10.796875,0.015736177223508,18.64,1
10.8125,-0.0015266924533919115,17.12,1
10.828125,0.006756502694695848,15.66,1
10.84375,0.025020832766303874,14.1,1
10.859375,0.05583736606954643,12.31,1
10.875,0.1139973691921341,10.35,1
10.890625,0.070800254555744,8.44,1
10.90625,-0.006312640465398329,6.93,1
10.921875,-0.05273203494098505,6.15,1
10.9375,-0.06850814736249859,6.24,1
10.953125,-0.06961194757889327,7.06,1
10.96875,-0.005329588646158431,8.09,1
10.984375,0.287027015458629,8.56,1
11.0,0.30161770311784086,7.58,1
11.015625,0.15292886585754975,4.36,1
11.03125,-0.05364349245847116,-1.65,1
11.046875,-0.2082199039481085,-10.54,1
11.0625,-0.1923641379782458,-21.75,1
11.078125,-0.17769126878189023,-34.05,1
11.09375,-0.1459343631080135,-45.63,1
11.109375,-0.15304384925381745,-54.44,1
11.125,-0.13488915573248295,-58.78,1
11.140625,-0.13233097040379094,-57.76,1
11.15625,-0.1285173796473131,-51.65,1
11.171875,-0.130568830679685,-41.76,1
11.1875,-0.16005341121174801,-29.96,1
11.203125,-0.1616838500798578,-18.15,1
11.21875,-0.16153358205929153,-7.74,1
11.234375,-0.11502300042468024,0.51,1
11.25,-0.026227962030944622,6.45,1
11.265625,0.044735825159093016,10.25,1
11.28125,0.06703246862773031,12.21,1
11.296875,0.05771176835043725,12.58,1
11.3125,0.03295114491567812,11.59,1
11.328125,0.026414322885396153,9.51,1
11.34375,0.02733637777682323,6.68,1
11.359375,0.036651278768602226,3.51,1
11.375,0.029923620114417668,0.45,1
11.390625,0.02389984281998361,-2.17,1
11.40625,0.02405149705856741,-4.15,1
11.421875,0.0313990783971093,-5.5,1
11.4375,0.023535682117308936,-6.36,1
11.453125,0.030387456238062185,-6.92,1
11.46875,0.013728947959528887,-7.35,1
11.484375,0.021789645493133353,-7.73,1
11.5,0.013105382042115404,-8.08,1
11.515625,0.02288506302313549,-8.35,1
11.53125,0.031157395965410457,-8.6,1
11.546875,0.07204131501631396,-8.96,1
11.5625,0.11899398471810234,-9.58,1
11.578125,0.09492450653608742,-10.57,1
11.59375,0.020057256786173323,-11.92,1
11.609375,-0.0027207241626804697,-13.44,1
11.625,-0.03060070210608832,-14.95,1
11.640625,-0.018563048675022654,-16.37,1
11.65625,0.007718054692085363,-17.84,1
11.671875,0.2961314842204473,-19.73,1
11.6875,0.22345255022858507,-22.4,1
11.703125,0.19345200161210768,-26.0,1
11.71875,0.05953541750595226,-30.22,1
11.734375,-0.14801896103308818,-34.2,1
11.75,-0.10545386910152144,-36.79,1
11.765625,-0.1424069704609687,-36.88,1
11.78125,-0.10433924066974323,-33.8,1
11.796875,-0.11143536748901174,-27.58,1
11.8125,-0.08290235059177581,-18.93,1
11.828125,-0.09739118459515106,-9.01,1
11.84375,-0.07431051269360217,0.89,1
11.859375,-0.10748911855172913,9.65,1
11.875,-0.10042475580271581,16.52,1
11.890625,-0.11698284208729767,21.2,1
11.90625,-0.1003578850266032,23.72,1
11.921875,-0.06143361734475029,24.38,1
11.9375,0.011624996577313456,23.54,1
11.953125,0.043185153615201935,21.55,1
11.96875,0.08060128897449731,18.64,1
11.984375,0.06414816633162565,14.93,1
12.0,0.054522038386943306,10.5,1
12.015625,0.03602382869170062,5.55,1
12.03125,0.028264553935709844,0.51,1
12.046875,0.03392217539650765,-3.95,1
12.0625,0.0446004402321542,-7.02,1
12.078125,0.038082789741346615,-8.08,1
12.09375,0.053435912564055985,-6.88,1
12.109375,0.044781213243622955,-3.65,1
12.125,0.04588509940463985,0.97,1
12.140625,0.04027001730718134,6.12,1
12.15625,0.05955393155683553,10.97,1
12.171875,0.0320040293083967,14.87,1
12.1875,0.04592348439976334,17.43,1
12.203125,0.0379085153264389,18.51,1
12.21875,0.033622656018511915,18.15,1
12.234375,0.04146861889037912,16.56,1
12.25,0.046986906072882216,14.04,1
12.265625,0.05048152040909253,10.9,1
12.28125,0.06630152999417184,7.43,1
12.296875,0.10610649364224006,3.81,1
12.3125,0.0796121135738339,0.11,1
12.328125,0.048517801273337456,-3.66,1
12.34375,0.008079513009577178,-7.47,1
12.359375,-0.0029489709811731965,-11.17,1
12.375,-0.011010166620788521,-14.36,1
12.390625,0.13043543611254735,-16.4,1
12.40625,0.34538953915482135,-16.5,1
12.421875,0.1856716383404751,-13.88,1
12.4375,0.2181409998786602,-8.14,1
12.453125,-0.05444536687170681,0.46,1
12.46875,-0.09253446569700072,10.94,1
12.484375,-0.09386732074861273,21.73,1
12.5,-0.09636913090257455,31.09,1
12.515625,-0.10009441672302458,37.58,1
12.53125,-0.0940500053402765,40.46,1
12.546875,-0.07403143671532934,39.75,1
12.5625,-0.0782840845055566,36.17,1
12.578125,-0.10081093770807571,30.75,1
12.59375,-0.12199783691833117,24.54,1
12.609375,-0.14138275427296207,18.44,1
12.625,-0.17202978628425294,13.13,1
12.640625,-0.14227183009815456,9.12,1
12.65625,-0.09723234866159576,6.83,1
12.671875,-0.008599836293716048,6.55,1
12.6875,0.049325602098232064,8.35,1
12.703125,0.06726962330596974,11.96,1
12.71875,0.06675403519455242,16.79,1
12.734375,0.06216767094342514,22.02,1
12.75,0.06367318180177854,26.77,1
12.765625,0.057618440142307506,30.35,1
12.78125,0.06538562327847279,32.3,1
12.796875,0.04830789184855685,32.37,1
12.8125,0.06132000481807994,30.42,1
12.828125,0.05486604871081077,26.35,1
12.84375,0.05639658879098021,20.07,1
12.859375,0.05042456779675734,11.72,1
12.875,0.04868941549666645,1.8,1
12.890625,0.03613492519875601,-8.79,1
12.90625,0.047363425533311625,-18.86,1
12.921875,0.03727304797835167,-27.25,1
12.9375,0.04267809374345615,-33.11,1
12.953125,0.037393658708938134,-36.17,1
12.96875,0.05158044587662683,-36.73,1
12.984375,0.0440376194218924,-35.49,1
13.0,0.0648639731454246,-33.25,1
13.015625,0.03601439424286651,-30.7,1
13.03125,0.04145389669084426,-28.21,1
13.046875,0.059109277961181005,-25.73,1
13.0625,0.06983596389335031,-22.93,1
13.078125,0.09316105448011777,-19.3,1
13.09375,0.05236171961467076,-14.39,1
13.109375,0.04422251294789997,-8.02,1
13.125,0.024661317598605806,-0.34,1
13.140625,0.03141665040285108,8.09,1
13.15625,0.19203813748504697,16.53,1
13.171875,0.5718963858582498,24.21,1
13.1875,0.48482293721464026,30.52,1
13.203125,0.16018578005279258,35.05,1
13.21875,-0.055616353443607866,37.66,1
13.234375,-0.1318221138570968,38.42,1
13.25,-0.12240529633883966,37.64,1
13.265625,-0.13034720656991133,35.8,1
13.28125,-0.12306110515959238,33.46,1
13.296875,-0.142228640293945,31.17,1
13.3125,-0.14569149984801055,29.29,1
13.328125,-0.1555878790356671,27.89,1
13.34375,-0.16979523599089813,26.76,1
13.359375,-0.20005693617336456,25.53,1
13.375,-0.2098950636701578,23.85,1
13.390625,-0.2273724157193756,21.5,1
13.40625,-0.23951969525288652,18.47,1
13.421875,-0.18948883981881545,14.99,1
13.4375,-0.08156850457776514,11.53,1
13.453125,0.010783250298209382,8.7,1
13.46875,0.03932156678229277,7.11,1
13.484375,0.03174370438123799,7.12,1
13.5,0.02234322695874941,8.65,1
13.515625,0.02179236141185803,11.1,1
13.53125,0.022636425181941533,13.41,1
13.546875,0.027433133445967157,14.44,1
13.5625,0.03637517148124759,13.31,1
13.578125,0.05108275706962415,9.69,1
13.59375,0.07994677589060967,3.9,1
13.609375,0.06246635255260473,-3.31,1
13.625,0.05519025513951604,-10.99,1
13.640625,0.05091603643270321,-18.28,1
13.65625,0.04930309073491478,-24.59,1
13.671875,0.046913630811803345,-29.62,1
13.6875,0.041320230398168296,-33.28,1
13.703125,0.04143603170744986,-35.74,1
13.71875,0.03372019839941679,-37.28,1
13.734375,0.060284381188181795,-38.32,1
13.75,0.046373271598523835,-39.33,1
13.765625,0.05000939055876319,-40.74,1
13.78125,0.06876239858707561,-42.81,1
13.796875,0.027247441644367234,-45.54,1
13.8125,0.027418075333766122,-48.58,1
13.828125,0.005991001042224354,-51.31,1
13.84375,-0.001473484279705629,-52.88,1
13.859375,-0.05832672391841223,-52.51,1
13.875,-0.017191789051719877,-49.67,1
13.890625,0.09256613139678158,-44.21,1
13.90625,0.4955750727220522,-36.62,1
13.921875,0.48881695357456245,-28.06,1
13.9375,0.10179486403071958,-20.06,1
13.953125,-0.10751343706727769,-14.08,1
13.96875,-0.18038079005961483,-10.94,1
13.984375,-0.18875660357155546,-10.49,1
14.0,-0.17903918917200673,-11.59,1
14.015625,-0.16497549687549268,-12.45,1
14.03125,-0.17340297292341345,-11.13,1
14.046875,-0.13962417241099798,-6.35,1
14.0625,-0.12041089319504426,2.01,1
14.078125,-0.12190519969411434,12.76,1
14.09375,-0.1464864817291364,23.96,1
14.109375,-0.15271186447839583,33.6,1
14.125,-0.168733637159234,40.29,1
14.140625,-0.15900207965471266,43.66,1
14.15625,-0.11208629206829439,44.52,1
14.171875,-0.007720463269314399,45.19,1
14.1875,0.050273932429149876,48.73,1
14.203125,0.06257370094396952,57.91,1
14.21875,0.067877388758093,73.92,1
14.234375,0.05557369727230701,95.52,1
14.25,0.03562364061086442,118.87,1
14.265625,0.021064621772882947,138.38,1
14.28125,0.0238714236831285,148.45,1
14.296875,0.040336998588964834,145.53,1
14.3125,0.02192079226537003,130.24,1
14.328125,0.02488107029184369,106.19,1
14.34375,0.028309504335735702,77.86,1
14.359375,0.039471611596288377,48.56,1
14.375,0.011006342860393054,19.64,1
14.390625,0.0196218209605885,-8.88,1
14.40625,0.020162416953715522,-37.16,1
14.421875,0.001038144613192456,-64.48,1
14.4375,-0.006538087468154246,-89.04,1
14.453125,0.008246956334214137,-106.99,1
14.46875,0.01285884479291598,-115.62,1
14.484375,-0.012880733763147023,-115.14,1
14.5,-0.020979749408258638,-108.59,1
14.515625,0.015592076056036928,-99.73,1
14.53125,0.052936292025351564,-90.75,1
14.546875,0.04030031342690919,-81.67,1
14.5625,-0.017696893579121183,-71.0,1
14.578125,-0.005544273480572135,-57.08,1
14.59375,-0.025854198609281936,-36.46,1
14.609375,-0.040188234561496394,-7.91,1
14.625,0.02336172233307165,26.03,1
14.640625,0.3890483777302941,59.33,1
14.65625,0.5357670098966201,85.35,1
14.671875,0.19668913827564086,100.07,1
14.6875,-0.05977041696141198,103.36,1
14.703125,-0.1551340944139706,98.64,1
14.71875,-0.17368698812849212,91.78,1
14.734375,-0.14057586398776062,93.16,1
14.75,-0.12893304627275212,111.79,1
14.765625,-0.11518093964183543,151.31,1
14.78125,-0.11857944510626817,208.39,1
14.796875,-0.07958657381292251,274.51,1
14.8125,-0.08594882492665663,339.45,1
14.828125,-0.10769581084447992,393.56,1
14.84375,-0.12567410361708128,429.27,1
14.859375,-0.0785630029674177,420.32,1
14.875,-0.09671956285690188,353.44,1
14.890625,-0.1047224671566541,237.66,1
14.90625,0.0003441887410657651,102.88,1
14.921875,0.05566031565547292,-18.85,1
14.9375,0.09823690662945261,-109.62,1
14.953125,0.1333555130816723,-167.13,1
14.96875,0.09767313234677388,-197.96,1
14.984375,0.050234596495215944,-211.08,1
15.0,0.019818191573063776,-214.3,1
15.015625,0.020715503047517694,-209.65,1
15.03125,0.01611231563495139,-197.79,1
15.046875,0.026151341472602025,-180.72,1
15.0625,0.017491976817508234,-162.51,1
15.078125,0.011746629536074514,-147.36,1
15.09375,0.022396366707568702,-137.16,1
15.109375,0.04457744128410161,-131.59,1
15.125,0.008159074338089005,-129.23,1
15.140625,-0.024167400519000713,-128.77,1
15.15625,-0.018912781243429364,-126.6,1
15.171875,0.0006012743163089869,-120.15,1
15.1875,-0.007367418656775955,-109.84,1
15.203125,-0.010959009987422195,-97.91,1
15.21875,0.03544595441311124,-87.22,1
15.234375,0.06678528149025134,-78.8,1
15.25,0.10431532157586709,-71.8,1
15.265625,0.0594143916056111,-64.38,1
15.28125,0.026868645162495864,-55.3,1
15.296875,-0.001791300723080554,-43.01,1
15.3125,-0.03835542407972923,-27.68,1
15.328125,-0.08014653792794152,-11.48,1
15.34375,-0.008242020067406017,2.44,1
15.359375,0.3487723112044252,11.7,1
15.375,0.4963209918643503,16.22,1
15.390625,0.12423302708599024,17.57,1
15.40625,-0.10730017616367152,17.9,1
15.421875,-0.1925856318225521,18.62,1
15.4375,-0.17532397586590923,20.81,1
15.453125,-0.20259128786561612,24.47,1
15.46875,-0.17685661591019125,28.6,1
15.484375,-0.17216354624118888,31.63,1
15.5,-0.1228267068879453,31.93,1
15.515625,-0.1145207015621711,30.07,1
15.53125,-0.13312732322622106,26.53,1
15.546875,-0.11237101290532409,21.9,1
15.5625,-0.17260702750819057,16.64,1
15.578125,-0.1841872476207475,11.33,1
15.59375,-0.1709655622548931,6.49,1
15.609375,-0.1572993972015946,2.48,1
15.625,-0.053615692273821264,-0.56,1
15.640625,-0.002053141867829296,-2.78,1
15.65625,-0.0005709920041464117,-4.45,1
15.671875,0.005779728151070091,-6.14,1
15.6875,0.031876319881782446,-8.2,1
15.703125,-0.026290241221250146,-10.66,1
15.71875,-0.03514900935787457,-13.17,1
15.734375,-0.01840380191259234,-15.13,1
15.75,-0.021021807668345466,-16.01,1
15.765625,0.024110949043659687,-15.51,1
15.78125,0.00788834127035649,-13.71,1
15.796875,0.005437635914484763,-10.95,1
15.8125,0.04254410720120698,-7.93,1
15.828125,0.06961195156075767,-5.31,1
15.84375,0.05489625257289325,-3.7,1
15.859375,0.02696075150473082,-3.45,1
15.875,0.03464295828174002,-4.55,1
15.890625,0.036961038445857415,-6.52,1
15.90625,0.04004407558884686,-8.47,1
15.921875,0.08490465828593387,-9.31,1
15.9375,0.13499083353147281,-8.0,1
15.953125,0.16265318677666407,-3.94,1
15.96875,0.07637158042489879,2.91,1
15.984375,-0.0057854967577867815,11.91,1
16.0,-0.002992131597303817,21.73,1
16.015625,-0.04098117421839846,30.64,1
16.03125,0.05703314933133752,37.05,1
16.046875,0.3219096019543256,40.16,1
16.0625,0.40026231306685855,40.42,1
16.078125,0.22648634907423104,39.59,1
16.09375,0.01649337354767637,40.2,1
16.109375,-0.15330674368409175,44.72,1
16.125,-0.14465659462641306,54.63,1
16.140625,-0.11668505163607998,69.78,1
16.15625,-0.06374856793562791,88.28,1
16.171875,-0.09382549450659125,106.97,1
16.1875,-0.07794053469016142,122.12,1
16.203125,-0.10171783274893328,130.48,1
16.21875,-0.08968958931707557,130.02,1
16.234375,-0.13927670091537012,120.46,1
16.25,-0.1246800347655445,103.13,1
16.265625,-0.11445947689460831,80.3,1
16.28125,-0.14031397259956094,54.11,1
16.296875,-0.0835623488239586,25.68,1
16.3125,-0.01134781038046183,-4.97,1
16.328125,0.01461687462065985,-38.3,1
16.34375,0.04656112035799469,-74.24,1
16.359375,0.07028489720145155,-111.56,1
16.375,0.028786952188618556,-148.0,1
16.390625,0.0014847834908741048,-180.84,1
16.40625,0.054768685511221285,-207.94,1
16.421875,0.026497354881965345,-228.07,1
16.4375,0.06375405208280661,-240.89,1
16.453125,0.058733003576502726,-246.69,1
16.46875,0.08622915423221217,-245.99,1
16.484375,0.09264182403718418,-239.68,1
16.5,0.14918285755313798,-228.99,1
16.515625,0.104621734891474,-215.35,1
16.53125,0.1100058717693542,-200.03,1
16.546875,0.13096472962182382,-183.79,1
16.5625,0.08429898511854961,-166.97,1
16.578125,0.1754139573526078,-149.76,1
16.59375,0.25520190319255076,-132.73,1
16.609375,0.1840566603224528,-116.61,1
16.625,0.06806537546578817,-101.79,1
16.640625,3.8470974521425365e-05,-87.85,1
16.65625,-0.07657244804272201,-73.51,1
16.671875,-0.0386857163762242,-57.44,1
16.6875,-0.019209073413365484,-39.0,1
16.703125,0.17264965377797095,-18.35,1
16.71875,0.18067050652638164,4.31,1
16.734375,0.07207366060922708,29.3,1
16.75,-0.12828890038215338,57.63,1
16.765625,-0.3002791438981706,89.6,1
16.78125,-0.2453543706816935,123.02,1
16.796875,-0.24476409630485235,152.58,1
16.8125,-0.25323463731743046,171.05,1
16.828125,-0.22777607544969433,172.52,1
16.84375,-0.21231663874651976,155.46,1
16.859375,-0.21435304570387176,123.79,1
16.875,-0.1737171206328924,85.39,1
16.890625,-0.14488888026063948,49.47,1
16.90625,-0.15811764819042218,24.11,1
16.921875,-0.12875378648167,15.04,1
16.9375,-0.09318479244965522,25.16,1
16.953125,-0.0334740009931625,54.22,1
16.96875,0.0708362121959465,98.14,1
16.984375,0.1410133579417892,148.46,1
17.0,0.20055936245909392,193.56,1
17.015625,0.15729082550364773,221.59,1
17.03125,0.09313686621336592,224.27,1
17.046875,0.05361659457101857,199.4,1
17.0625,0.007515617153362643,151.01,1
17.078125,-0.005065128812704483,87.51,1
17.09375,0.02254488467008757,18.88,1
17.109375,0.029262170073563624,-45.2,1
17.125,0.0358884136604028,-96.64,1
17.140625,0.04553697819193273,-129.72,1
17.15625,0.0027284192488912285,-142.08,1
17.171875,-0.048557513580732,-135.73,1
17.1875,-0.06539497684757778,-117.19,1
17.203125,-0.04846472119618181,-95.53,1
17.21875,-0.09737132852195692,-78.75,1
17.234375,-0.07413357838230474,-70.98,1
17.25,0.011057130064287204,-71.0,1
17.265625,0.023283731413211894,-74.11,1
17.28125,-0.05219153561772022,-75.46,1
17.296875,-0.08813917049279779,-72.75,1
17.3125,-0.08072730250620785,-67.11,1
17.328125,-0.05891913503766459,-61.64,1
17.34375,0.0245425618771223,-58.84,1
17.359375,0.358539322245754,-58.9,1
17.375,0.3198863936419474,-59.75,1
17.390625,0.15201364450994553,-58.65,1
17.40625,-0.020143518874489962,-54.29,1
17.421875,-0.1644810593943138,-47.82,1
17.4375,-0.16382304203833492,-42.53,1
17.453125,-0.15729020882744926,-42.1,1
17.46875,-0.1385837507988353,-48.49,1
17.484375,-0.12209535819185054,-60.81,1
17.5,-0.09905728104812084,-75.6,1
17.515625,-0.10159774563129322,-88.62,1
17.53125,-0.09280173358153046,-96.8,1
17.546875,-0.11642748719432043,-99.46,1
17.5625,-0.1286461656311104,-98.18,1
17.578125,-0.13275268392822026,-95.54,1
17.59375,-0.14001351228584039,-93.66,1
17.609375,-0.11596595038556945,-93.18,1
17.625,-0.03095102911883525,-93.53,1
17.640625,0.00664228106580462,-93.62,1
17.65625,0.03695057679123401,-92.89,1
17.671875,0.01064491619022534,-91.7,1
17.6875,-0.0011585002630068513,-91.05,1
17.703125,-0.00688938329703756,-92.01,1
17.71875,7.838458510600062e-05,-94.92,1
17.734375,0.01404492494863241,-99.29,1
17.75,0.014916559156234323,-103.96,1
17.765625,0.030251234419357332,-107.63,1
17.78125,0.040841317634692224,-109.32,1
17.796875,0.04637447695752765,-108.57,1
17.8125,0.05011494689316838,-105.31,1
17.828125,0.05413612153227242,-99.71,1
17.84375,0.06312374731209039,-91.88,1
17.859375,0.051919407579545176,-81.87,1
17.875,0.06456055962883395,-69.89,1
17.890625,0.07715177071076497,-56.43,1
17.90625,0.1335433929092534,-42.35,1
17.921875,0.18633928549671347,-28.74,1
17.9375,0.12826375332803372,-16.68,1
17.953125,0.05469376976486274,-6.87,1
17.96875,0.02132849072762593,0.45,1
17.984375,0.023214936989349202,5.34,1
18.0,0.008312910607497913,7.92,1
18.015625,0.22111082149752417,8.1,1
18.03125,0.4622132540611832,5.6,1
18.046875,0.2746287891615632,0.04,1
18.0625,0.13417277437656802,-8.72,1
18.078125,-0.06961466165800165,-20.38,1
18.09375,-0.13596037704923924,-33.99,1
18.109375,-0.12119088026293373,-48.14,1
18.125,-0.09657580577739479,-61.1,1
18.140625,-0.08692770920681399,-71.31,1
18.15625,-0.07694154203537229,-77.77,1
18.171875,-0.08225761283101124,-80.46,1
18.1875,-0.06847785520087828,-80.32,1
18.203125,-0.07195105719260775,-78.87,1
18.21875,-0.07839594891947946,-77.45,1
18.234375,-0.11150898659987753,-76.49,1
18.25,-0.0954349413804275,-75.35,1
18.265625,-0.08980130279101645,-72.77,1
18.28125,-0.038485517619458134,-67.72,1
18.296875,-0.00041349340360235197,-59.96,1
18.3125,0.06912408971549479,-50.03,1
18.328125,0.08375237822329724,-38.55,1
18.34375,0.09465932667274612,-25.52,1
18.359375,0.06609001854269632,-10.13,1
18.375,0.07256029522486442,8.7,1
18.390625,0.0828511788893195,31.27,1
18.40625,0.04683645683837635,56.55,1
18.421875,0.06729628600123513,82.33,1
18.4375,0.06638471335803914,106.22,1
18.453125,0.018949560477615368,126.81,1
18.46875,0.08268771242032379,144.11,1
18.484375,0.07353173893454859,159.11,1
18.5,0.01178807799321586,172.7,1
18.515625,-0.00577569219356736,184.76,1
18.53125,0.03221962381241433,194.05,1
18.546875,0.05524713150574577,198.81,1
18.5625,0.0006849148913704762,197.79,1
18.578125,0.021720327730222963,190.95,1
18.59375,0.09169307687025698,179.56,1
18.609375,0.17125182579108492,165.55,1
18.625,0.06121555259571411,150.89,1
18.640625,-0.0025359079619599917,136.98,1
18.65625,-0.02961428124465214,124.53,1
18.671875,-0.026380571338298995,113.74,1
18.6875,-0.05537864211126247,104.4,1
18.703125,0.11310067780776815,96.0,1
18.71875,0.45696091739703115,87.79,1
18.734375,0.3918405556919244,78.93,1
18.75,0.0921699117062773,68.85,1
18.765625,-0.10027972560200417,57.54,1
18.78125,-0.1739394172452092,45.72,1
18.796875,-0.12972927435687576,34.61,1
18.8125,-0.12267440936033619,25.39,1
18.828125,-0.09871373013809566,18.69,1
18.84375,-0.13386613711417422,14.48,1
18.859375,-0.099471577922012,12.31,1
18.875,-0.09636770892880799,11.76,1
18.890625,-0.08302199040305876,12.77,1
18.90625,-0.09921746143300622,15.55,1
18.921875,-0.1389540848323074,20.06,1
18.9375,-0.1476847072317342,25.68,1
18.953125,-0.11490752815922592,31.15,1
18.96875,-0.05582030175287747,35.19,1
18.984375,0.007655141346029073,37.12,1
19.0,0.00969877985232951,37.41,1
19.015625,0.035354952391449986,37.37,1
19.03125,0.02896254221724333,38.47,1
19.046875,0.020913762580359842,41.43,1
19.0625,-0.00497416494059936,45.91,1
19.078125,-0.012046766839003149,50.84,1
19.09375,-0.023879077781863944,55.19,1
19.109375,-0.02934277758063501,58.55,1
19.125,-0.022328912084139972,61.28,1
19.140625,0.024351867672862345,64.0,1
19.15625,0.01987221480712302,67.07,1
19.171875,0.016062744393249163,70.35,1
19.1875,0.012480923365790085,73.37,1
19.203125,0.021487051148370177,75.87,1
19.21875,0.009353865482709129,78.08,1
19.234375,0.03101112925858968,80.61,1
19.25,0.048084765497705004,84.19,1
19.265625,0.13073722078436031,89.07,1
19.28125,0.13827670592191293,94.93,1
19.296875,0.016616596030956294,101.02,1
19.3125,-0.018652073036353575,106.73,1
19.328125,-0.044357798056295236,111.84,1
19.34375,-0.02570142248845138,116.69,1
19.359375,-0.009112877573905661,121.86,1
19.375,0.2115601818628609,127.59,1
19.390625,0.5082174600288332,133.66,1
19.40625,0.29118769446691345,139.01,1
19.421875,0.0272108348256785,142.09,1
19.4375,-0.10091847515841355,141.35,1
19.453125,-0.12772665794099056,135.78,1
19.46875,-0.15998371574044823,125.11,1
19.484375,-0.1254572531755353,109.7,1
19.5,-0.09003962598411122,90.21,1
19.515625,-0.06328020679618877,67.18,1
19.53125,-0.05789658076977833,41.64,1
19.546875,-0.0699521663579018,15.08,1
19.5625,-0.07023040387660004,-10.24,1
19.578125,-0.0801388824911876,-31.72,1
19.59375,-0.0990206619820524,-47.36,1
19.609375,-0.09394315128718982,-56.68,1
19.625,-0.08835367864077066,-61.06,1
19.640625,-0.011424635821558933,-62.78,1
19.65625,0.013319861366711351,-63.97,1
19.671875,0.034912793551966324,-64.09,1
19.6875,0.04329637861966476,-61.32,1
19.703125,0.013606065766587136,-53.31,1
19.71875,0.01588002642071464,-38.86,1
19.734375,-0.005921660681757242,-18.8,1
19.75,0.019252108008064504,4.46,1
19.765625,0.006009947085662678,28.27,1
19.78125,0.018210465477281668,50.93,1
19.796875,0.029794757439239143,71.14,1
19.8125,0.013168825318461683,89.72,1
19.828125,0.03650185776372354,105.29,1
19.84375,0.023777127719954053,114.78,1
19.859375,0.03566527611088014,114.22,1
19.875,-0.005400320067133239,100.33,1
19.890625,0.001538643588227782,72.17,1
19.90625,0.0298134582835552,31.63,1
19.921875,0.10363643595372767,-17.22,1
19.9375,0.13723873540892456,-70.59,1
19.953125,0.03306560914703019,-121.91,1
19.96875,-0.011872132572298683,-167.02,1
19.984375,-0.04202321639343555,-202.93,1
20.0,-0.025189711856741483,-227.96,1
20.015625,-0.044525133285883145,-242.24,1
20.03125,0.15621822095241053,-247.79,1
20.046875,0.4494531925737047,-248.39,1
20.0625,0.30030455992587346,-248.55,1
20.078125,0.08576438125597581,-253.24,1
20.09375,-0.10214243638229212,-261.29,1
20.109375,-0.18570675451713906,-270.94,1
20.125,-0.16655962453600187,-278.84,1
20.140625,-0.15497876322193807,-281.67,1
20.15625,-0.13540003544037663,-277.6,1
20.171875,-0.1217854818205107,-266.38,1
20.1875,-0.1194629060845873,-249.66,1
20.203125,-0.10405814241327709,-219.68,1
20.21875,-0.12082719898723894,-193.55,1
20.234375,-0.1286763115853062,-170.27,1
20.25,-0.12248757557672946,-149.46,1
20.265625,-0.13692709134864564,-128.9,1
20.28125,-0.10569250594993507,-104.95,1
20.296875,-0.043054641566559526,-73.83,1
20.3125,0.012136409662761055,-32.74,1
20.328125,0.04253994324507466,16.98,1
20.34375,0.037861973475832006,68.72,1
20.359375,0.029161585670041183,112.66,1
20.375,0.014281905988765166,144.02,1
20.390625,0.029633737501292147,159.47,1
20.40625,0.015509478940181955,160.55,1
20.421875,0.01025946111797638,152.83,1
20.4375,0.02108248659558758,143.56,1
20.453125,0.024044909913058028,140.41,1
20.46875,0.02371144038424774,147.79,1
20.484375,0.020352068714964724,165.29,1
20.5,0.022493777460237688,190.2,1
20.515625,0.03289939203568602,221.61,1
20.53125,0.04262290635695399,255.24,1
20.546875,0.04395139606765331,285.78,1
20.5625,0.047742932355678835,308.38,1
20.578125,0.12477266485030179,320.08,1
20.59375,0.13482404949732263,322.25,1
20.609375,0.06684915874300204,317.79,1
20.625,0.009918223383645345,308.24,1
20.640625,-0.03642149959206963,295.74,1
20.65625,-0.020432827755016335,283.47,1
20.671875,-0.02381715442055901,271.13,1
20.6875,0.21441632861620966,256.48,1
20.703125,0.41182908361184145,236.75,1
20.71875,0.2630363072684268,200.48,1
20.734375,0.07358841724975608,146.97,1
20.75,-0.11897095994440424,93.61,1
20.765625,-0.15083463294715815,44.76,1
20.78125,-0.159059056403291,-0.76,1
20.796875,-0.15218980801846385,-40.8,1
20.8125,-0.12948175570231052,-74.0,1
20.828125,-0.1086947432273449,-99.95,1
20.84375,-0.10620722528695196,-119.63,1
20.859375,-0.11041237791605425,-135.21,1
20.875,-0.1112861584809139,-147.94,1
20.890625,-0.12645630554038875,-159.87,1
20.90625,-0.1310114417043174,-174.53,1
20.921875,-0.1389860851438845,-192.18,1
20.9375,-0.09206302627235945,-210.37,1
20.953125,-0.042305914088108576,-226.97,1
20.96875,0.03542388913905587,-241.18,1
20.984375,0.05614966816762638,-253.8,1
21.0,0.040467435429596785,-266.44,1
21.015625,0.030652637065654516,-278.79,1
21.03125,0.01264081091363061,-289.37,1
21.046875,0.017093265091032338,-296.94,1
21.0625,-0.012876580206459112,-298.23,1
21.078125,0.00824914913394596,-290.25,1
21.09375,-0.00014607338346325907,-272.65,1
21.109375,0.014083694184455828,-247.47,1
21.125,-0.011399948739472377,-217.8,1
21.140625,0.016832347308718153,-186.24,1
21.15625,0.03844939478119811,-153.48,1
21.171875,0.02375546005606587,-119.74,1
21.1875,0.011849547733066465,-86.44,1
21.203125,0.01777221154437162,-54.7,1
21.21875,0.006492783327770961,-25.52,1
21.234375,-0.00443311816069969,0.23,1
21.25,0.004734995816995868,22.62,1
21.265625,-0.0017846213994802485,42.56,1
21.28125,0.010263905282208658,61.11,1
21.296875,0.0437438903152447,78.72,1
21.3125,0.10658121838935827,94.31,1
21.328125,0.12638139744345298,105.49,1
21.34375,0.06254120058952771,110.81,1
21.359375,0.005201705668164508,110.55,1
21.375,-0.05276033382378945,106.17,1
21.390625,-0.0359535646377124,99.4,1
21.40625,-0.040304644601507594,90.99,1
21.421875,0.17701097799593685,80.2,1
21.4375,0.4226097644293686,65.6,1
21.453125,0.26421843541457896,46.27,1
21.46875,0.07952482035857449,22.92,1
21.484375,-0.13542337872806884,-1.23,1
21.5,-0.15900106413871493,-21.49,1
21.515625,-0.1613179476915731,-33.68,1
21.53125,-0.13930474918768146,-35.82,1
21.546875,-0.12485174677318747,-28.86,1
21.5625,-0.1226852358059848,-16.21,1
21.578125,-0.12540783471720998,-2.12,1
21.59375,-0.11726895622110525,9.94,1
21.609375,-0.10063505064265722,18.33,1
21.625,-0.10961576906956035,23.25,1
21.640625,-0.1286441463151583,25.81,1
21.65625,-0.1257934065034945,26.69,1
21.671875,-0.08818625216343325,25.26,1
21.6875,-0.029657232234436195,19.84,1
21.703125,0.04976380240646104,8.77,1
21.71875,0.061722333419792726,-7.98,1
21.734375,0.07824145707624297,-27.94,1
21.75,0.05904433784151554,-46.56,1
21.765625,0.05505768595221631,-58.87,1
21.78125,0.029233944719333296,-61.62,1
21.796875,0.04219425054708098,-54.75,1
21.8125,0.04474423966423906,-41.31,1
21.828125,0.035985636304491635,-25.88,1
21.84375,0.049701420012613996,-12.36,1
21.859375,0.045773034415236474,-2.37,1
21.875,0.04324436361311269,4.93,1
21.890625,0.03162075978874115,11.62,1
21.90625,0.06869436602053118,19.23,1
21.921875,0.038628538776665444,27.61,1
21.9375,0.037697436820159295,34.86,1
21.953125,0.0032368469224170505,38.56,1
21.96875,0.021642188990146916,37.09,1
21.984375,0.06335162366186677,30.59,1
22.0,0.04886960559227659,20.74,1
22.015625,0.03151575156774128,9.85,1
22.03125,0.01654617723772516,-0.21,1
22.046875,0.04051770301800076,-8.65,1
22.0625,0.04283676683887288,-15.63,1
22.078125,0.05504862563196794,-21.72,1
22.09375,0.04288701656156177,-27.35,1
22.109375,0.008944040493522643,-32.51,1
22.125,0.012523057375740743,-36.85,1
22.140625,0.028183378317966842,-39.68,1
22.15625,0.03723831797772785,-40.2,1
22.171875,0.06657236575193572,-37.6,1
22.1875,0.1223810759008089,-31.36,1
22.203125,0.08776862330033927,-21.61,1
22.21875,0.023356742025085253,-9.31,1
22.234375,-0.03366692278507563,3.99,1
22.25,-0.039069903640788106,16.72,1
22.265625,-0.05716703687998955,27.94,1
22.28125,0.02935501564655132,37.76,1
22.296875,0.3768431053018488,46.85,1
22.3125,0.5280954463116581,55.72,1
22.328125,0.21245608636087435,64.0,1
22.34375,-0.08082105798492042,70.42,1
22.359375,-0.19315249571605284,73.44,1
22.375,-0.1829433505838481,72.28,1
22.390625,-0.1771570043172035,67.57,1
22.40625,-0.1760794349933524,61.17,1
22.421875,-0.14424321887883346,55.33,1
22.4375,-0.146891591071392,51.54,1
22.453125,-0.17044572300923883,49.95,1
22.46875,-0.14707567812940459,49.52,1
22.484375,-0.1408521810026401,48.8,1
22.5,-0.18413982324006947,46.73,1
22.515625,-0.18622249922155257,43.14,1
22.53125,-0.14451756498953866,38.6,1
22.546875,-0.12968335681629772,33.88,1
22.5625,-0.0596808460732075,29.47,1
22.578125,0.02996559357799329,25.3,1
22.59375,0.05762819607520202,20.8,1
22.609375,0.07729127541135718,15.28,1
22.625,0.03913779715470121,8.32,1
22.640625,0.022215174325066565,0.1,1
22.65625,0.024150915738009645,-8.51,1
22.671875,0.02362030053901732,-16.26,1
22.6875,-0.006042724495803278,-21.96,1
22.703125,0.04765969777092325,-25.05,1
22.71875,0.05095657016549721,-25.98,1
22.734375,0.022417923215967386,-26.26,1
22.75,0.059310663222608084,-27.92,1
22.765625,0.04562982839804005,-32.57,1
22.78125,0.05012757266747877,-40.43,1
22.796875,0.03330643249718493,-49.9,1
22.8125,0.03497349303957644,-58.19,1
22.828125,0.05703341101555383,-62.87,1
22.84375,0.04111618992706783,-63.44,1
22.859375,0.0031175034295554097,-62.18,1
22.875,0.024431083396413276,-63.27,1
22.890625,0.02531601296532028,-70.71,1
22.90625,0.023128740460638137,-86.09,1
22.921875,0.007700668104931821,-107.52,1
22.9375,0.03734883660491772,-130.24,1
22.953125,0.028600871847568543,-148.43,1
22.96875,0.05028346314259501,-157.49,1
22.984375,0.019837759756555117,-155.27,1
23.0,-0.003900063269006812,-142.22,1
23.015625,-0.0064800043878336195,-120.47,1
23.03125,0.04056887480468002,-93.0,1
23.046875,0.07013728334228547,-63.13,1
23.0625,0.11245546421606932,-34.39,1
23.078125,0.07154145022421901,-10.15,1
23.09375,0.03886395874462378,7.28,1
23.109375,-0.01921057906025745,17.95,1
23.125,-0.040102880884260575,25.0,1
23.140625,-0.05009556712151195,34.18,1
23.15625,0.08996747493742545,51.81,1
23.171875,0.3659160220605017,81.87,1
23.1875,0.45104862648377897,123.93,1
23.203125,0.20078641008933223,172.71,1
23.21875,-0.10118739292625936,219.81,1
23.234375,-0.18636910731484754,256.61,1
23.25,-0.19662970801892962,277.08,1
23.265625,-0.17766121912586824,279.2,1
23.28125,-0.16608791663939865,264.55,1
23.296875,-0.16357146958732796,236.9,1
23.3125,-0.16276709080213822,200.75,1
23.328125,-0.17164800959492693,160.48,1
23.34375,-0.16107275231884616,120.43,1
23.359375,-0.18831474020773156,84.95,1
23.375,-0.208780232714097,58.08,1
23.390625,-0.23718439818746223,42.91,1
23.40625,-0.20605584498602633,40.64,1
23.421875,-0.1362329179236169,50.21,1
23.4375,-0.02445303306165972,68.64,1
23.453125,0.016124879201032748,91.82,1
23.46875,0.060387664104947704,115.46,1
23.484375,0.055909993330386494,136.12,1
23.5,0.044460113773445116,151.97,1
23.515625,0.023150146826070004,163.07,1
23.53125,0.014269986042205893,171.27,1
23.546875,0.0044096934443954875,178.88,1
23.5625,0.006488362926217022,186.96,1
23.578125,0.007353480590561723,193.99,1
23.59375,0.01429737875307804,195.58,1
23.609375,-0.004855143684213284,185.73,1
23.625,0.03284997767624583,159.11,1
23.640625,0.005883860953281666,113.67,1
23.65625,-0.01503989174889338,52.26,1
23.671875,0.006258308737961356,-17.6,1
23.6875,0.01643538837487292,-85.82,1
23.703125,-0.005430224580411094,-142.66,1
23.71875,-0.013824694036231594,-181.57,1
23.734375,0.02010083088064327,-200.84,1
23.75,0.00893393527582474,-203.38,1
23.765625,0.013204243568943487,-195.39,1
23.78125,0.03673288166620374,-184.12,1
23.796875,0.05834204841049535,-175.84,1
23.8125,0.08730538406632915,-174.5,1
23.828125,0.10990281117862488,-181.21,1
23.84375,0.14901716029777642,-194.55,1
23.859375,0.09606724189911411,-211.21,1
23.875,0.03447292860538204,-227.1,1
23.890625,-0.041752865556301984,-238.05,1
23.90625,-0.03664780945188949,-240.5,1
23.921875,-0.057520855462623505,-231.87,1
23.9375,0.20112493512637525,-210.96,1
23.953125,0.29151035679085474,-178.3,1
23.96875,0.2487823548712987,-136.31,1
23.984375,0.14131628847781103,-89.02,1
24.0,-0.15316572689699123,-41.36,1
24.015625,-0.12249118222565603,1.98,1
24.03125,-0.1277719065724142,38.31,1
24.046875,-0.1369960999915394,68.03,1
24.0625,-0.1372028850738691,94.64,1
24.078125,-0.07427388078327335,123.29,1
24.09375,-0.08616099104166444,158.28,1
24.109375,-0.06388816966204806,201.11,1
24.125,-0.09322598224490723,249.74,1
24.140625,-0.11004732026885863,299.46,1
24.15625,-0.14209601844492956,344.73,1
24.171875,-0.12382402802462501,381.05,1
24.1875,-0.10398293143772526,405.49,1
24.203125,-0.04855702339051085,416.61,1
24.21875,-0.006406474512319313,413.75,1
24.234375,0.029327560172553717,396.84,1
24.25,0.02833272678836493,366.6,1
24.265625,0.02126841441457529,324.87,1
24.28125,0.027292352453354186,274.42,1
24.296875,0.038023736724009743,218.25,1
24.3125,-0.00427358735633792,158.58,1
24.328125,0.02322679022679694,96.22,1
24.34375,0.0061063347586220494,31.05,1
24.359375,0.03179353500882574,-36.6,1
24.375,0.022643802725180295,-104.61,1
24.390625,-0.004229360594230255,-168.61,1
24.40625,-0.005129709496107878,-222.92,1
24.421875,-0.0049578602055609594,-262.47,1
24.4375,-0.02056068987516125,-284.5,1
24.453125,0.0033847335457699267,-289.43,1
24.46875,-0.0021978233548557713,-280.48,1
24.484375,0.008564853206554627,-262.51,1
24.5,0.005864360345238587,-241.01,1
24.515625,0.04577385453752227,-221.37,1
24.53125,0.049880979800226516,-208.91,1
24.546875,0.11389195105555659,-208.24,1
24.5625,0.11733347567313235,-221.94,1
24.578125,0.07307598376222187,-249.05,1
24.59375,0.00880313833034329,-284.34,1
24.609375,0.009323697866510992,-319.47,1
24.625,-0.06892532337254514,-345.9,1
24.640625,0.0014110278134546119,-358.13,1
24.65625,0.191853940556809,-355.7,1
24.671875,0.4122956341808216,-342.63,1
24.6875,0.5179881204967901,-324.96,1
24.703125,0.07594868236501759,-307.78,1
24.71875,-0.14164083514025183,-293.27,1
24.734375,-0.14730549800206194,-280.77,1
24.75,-0.17554399932578368,-268.27,1
24.765625,-0.18209693637079977,-254.19,1
24.78125,-0.1605377903575008,-238.06,1
24.796875,-0.12507859131321822,-220.09,1
24.8125,-0.12414430068119073,-200.31,1
24.828125,-0.10697406576851179,-178.06,1
24.84375,-0.09683340311970921,-152.45,1
24.859375,-0.15501934833390682,-123.27,1
24.875,-0.11839310328958287,-91.67,1
24.890625,-0.15104523609609544,-59.87,1
24.90625,-0.06589723491874758,-29.93,1
24.921875,-0.008257953694488639,-2.38,1
24.9375,0.08431748691958924,24.52,1
24.953125,0.10223726259145854,54.57,1
24.96875,0.0770846932897043,92.29,1
24.984375,0.11135285440529093,140.91,1
25.0,0.10089197073190026,200.46,1
25.015625,0.06226278870734977,267.05,1
25.03125,0.015573683958734775,333.1,1
25.046875,0.03934043031284938,389.28,1
25.0625,0.06397776212152805,427.06,1
25.078125,0.07264054737930693,441.01,1
25.09375,0.055339420115187915,430.07,1
25.109375,0.038032253225610595,397.42,1
25.125,0.023033823393951155,348.81,1
25.140625,0.029518726603757907,290.63,1
25.15625,0.04376410283305907,228.62,1
25.171875,0.013480214467127438,167.65,1
25.1875,0.03218092483046634,112.47,1
25.203125,0.006852920039278039,68.01,1
25.21875,0.017919688956738077,39.0,1
25.234375,0.13098772831862668,28.3,1
25.25,0.20005362790364964,35.2,1
25.265625,0.09127403140173532,54.7,1
25.28125,-0.006440106693942617,78.63,1
25.296875,-0.036642884362883196,98.09,1
25.3125,-0.01943685431192907,106.26,1
25.328125,-0.025585900224538737,100.37,1
25.34375,0.1399408640455487,81.85,1
25.359375,0.15291318805358306,55.35,1
25.375,0.47675851696402205,26.51,1
25.390625,0.25616791740834616,0.02,1
25.40625,-0.14105118023083166,-21.58,1
25.421875,-0.21144652321986557,-38.14,1
25.4375,-0.20135838224909836,-51.17,1
25.453125,-0.22525216506772236,-62.95,1
25.46875,-0.19939241400827948,-75.47,1
25.484375,-0.2403261103671339,-89.46,1
25.5,-0.08658140461338928,-103.78,1
25.515625,-0.17156257443712425,-115.76,1
25.53125,-0.21406361995709428,-122.27,1
25.546875,-0.2119507590891595,-121.3,1
25.5625,-0.19231194018337974,-113.09,1
25.578125,-0.19029801059835844,-99.92,1
25.59375,-0.1968568200244016,-85.14,1
25.609375,-0.0181279646712594,-71.52,1
25.625,0.010247084519187365,-60.33,1
25.640625,0.10096193857496298,-51.42,1
25.65625,0.10444001536297896,-44.14,1
25.671875,0.09379206275640552,-38.27,1
25.6875,0.04897260321053638,-34.32,1
25.703125,-0.013002541092726137,-33.18,1
25.71875,0.044705928227637526,-35.11,1
25.734375,0.06287824554739078,-39.22,1
25.75,0.034424092982560626,-43.67,1
25.765625,0.04153814346111563,-46.75,1
25.78125,0.046459369590617854,-47.93,1
25.796875,0.034698548136559995,-48.47,1
25.8125,0.08263153400152602,-50.72,1
25.828125,0.06279516647677391,-56.98,1
25.84375,0.03914876951585186,-68.62,1
25.859375,0.0361015395552896,-85.15,1
25.875,0.06783245545467283,-104.65,1
25.890625,0.1210114590840721,-124.17,1
25.90625,0.16192183675597469,-140.53,1
25.921875,0.1407020269579678,-151.03,1
25.9375,0.09113381984998127,-154.15,1
25.953125,-0.019626998438054658,-150.1,1
25.96875,-0.005059494679189218,-140.69,1
25.984375,-0.0559488652072508,-128.71,1
26.0,0.10424485332148965,-116.68,1
26.015625,0.06400191576422966,-106.25,1
26.03125,0.2970747613789849,-97.77,1
26.046875,0.5507705161158153,-90.45,1
26.0625,-0.034349749823555695,-82.8,1
26.078125,-0.17662410136671294,-73.32,1
26.09375,-0.15427459549622158,-61.42,1
26.109375,-0.1826732252789547,-47.86,1
26.125,-0.1880013079993526,-34.42,1
26.140625,-0.12799542750551657,-22.5,1
26.15625,-0.13680063904145648,-12.47,1
26.171875,-0.1274112165428376,-3.6,1
26.1875,-0.17037564001840996,5.38,1
26.203125,-0.15461463434021538,15.39,1
26.21875,-0.17122078494517606,26.31,1
26.234375,-0.19932783097421394,36.8,1
26.25,-0.1584784695409946,44.9,1
26.265625,-0.10186150906596804,48.95,1
26.28125,0.06455606077194313,49.36,1
26.296875,0.12814826506861587,47.61,1
26.3125,0.12253088359959587,44.87,1
26.328125,0.13536499664307056,41.28,1
26.34375,0.10779308420181394,36.47,1
26.359375,0.11401000551509052,30.35,1
26.375,0.09537633269825892,23.36,1
26.390625,0.09090429193426086,16.3,1
26.40625,0.04207293161892602,9.77,1
26.421875,0.10131716113792356,5.72,1
26.4375,0.11344141121749057,5.09,1
26.453125,0.0751520156754972,6.5,1
26.46875,0.049717165621910885,6.82,1
26.484375,0.10657733819840658,3.45,1
26.5,0.12226365121518035,-4.07,1
26.515625,0.08404472366808434,-14.36,1
26.53125,0.1688949301642221,-25.49,1
26.546875,0.1556090727097667,-35.88,1
26.5625,0.09158646295292242,-41.35,1
26.578125,0.027528086927829962,-38.58,1
26.59375,-0.005644585871454109,-27.52,1
26.609375,-0.04454776751997579,-11.64,1
26.625,0.10104646680007005,5.16,1
26.640625,0.16380753554156058,20.58,1
26.65625,0.21438285986051467,34.4,1
26.671875,0.5634679935165122,47.51,1
26.6875,0.1666360028539363,61.36,1
26.703125,-0.08800029487880487,82.27,1
26.71875,-0.08987027379613154,116.96,1
26.734375,-0.13821818772967487,168.81,1
26.75,-0.15618529492047484,236.26,1
26.765625,-0.11801246814327462,314.76,1
26.78125,-0.10319345213714431,397.68,1
26.796875,-0.03627905007804204,476.54,1
26.8125,-0.08798752142489542,540.98,1
26.828125,-0.11492804071803706,554.77,1
26.84375,-0.1648359447408676,494.27,1
26.859375,-0.2251944768699746,367.88,1
26.875,-0.16103435539406158,214.35,1
26.890625,-0.06562169818530064,74.61,1
26.90625,0.02528471208617012,-28.92,1
26.921875,0.06847613723775876,-92.75,1
26.9375,-0.002343632574472151,-123.56,1
26.953125,0.06665691039354374,-131.22,1
26.96875,0.08923833013392052,-125.25,1
26.984375,0.005625759041716818,-109.78,1
27.0,-0.0007605939569113808,-88.62,1
27.015625,0.052866232331832096,-68.29,1
27.03125,0.05792497539010645,-57.24,1
27.046875,-0.039700218278685404,-59.45,1
27.0625,0.0011849662941529292,-74.42,1
27.078125,0.045714203178382734,-96.99,1
27.09375,0.059815228390898714,-120.54,1
27.109375,0.04842639083006461,-140.26,1
27.125,0.11089520415663323,-151.01,1
27.140625,0.17075656777284984,-150.64,1
27.15625,0.20565219833057113,-140.67,1
27.171875,0.19213281050793024,-125.05,1
27.1875,0.053988068751611516,-106.47,1
27.203125,0.02098484335093583,-84.64,1
27.21875,0.014420695330458587,-57.48,1
27.234375,0.03740699208578995,-23.93,1
27.25,0.11773587917697574,13.65,1
27.265625,0.23475841912507855,49.93,1
27.28125,0.13134887940446105,76.17,1
27.296875,0.30126846917058075,83.36,1
27.3125,0.014812363742420244,66.61,1
27.328125,-0.14216863813489936,29.3,1
27.34375,-0.1785547652615702,-16.73,1
27.359375,-0.25471361692123773,-55.47,1
27.375,-0.21793371437475223,-73.0,1
27.390625,-0.22079503087309343,-63.26,1
27.40625,-0.2084496684838703,-28.68,1
27.421875,-0.18847826895129516,20.35,1
27.4375,-0.17392959220116186,69.41,1
27.453125,-0.2008861300522493,104.36,1
27.46875,-0.17810401147395233,115.7,1
27.484375,-0.11106923775906133,101.0,1
27.5,-0.12317285731401585,64.89,1
27.515625,-0.07413289492241383,17.74,1
27.53125,-0.011992873700560788,-29.45,1
27.546875,0.0416352740512081,-68.52,1
27.5625,-0.017892198527864223,-96.26,1
27.578125,0.009718824835014574,-112.61,1
27.59375,0.00642037727237361,-118.28,1
27.609375,-0.05624593299498067,-112.85,1
27.625,-0.008358715794605984,-94.81,1
27.640625,-0.011730133746710598,-63.49,1
27.65625,0.040599844044514215,-19.99,1
27.671875,0.020423078235955464,30.17,1
27.6875,0.032236680113887646,78.67,1
27.703125,0.04915467357585184,117.02,1
27.71875,0.08299876815978392,141.3,1
27.734375,0.04883231348527579,152.95,1
27.75,0.06040358804292451,156.51,1
27.765625,0.14914505046803567,155.77,1
27.78125,0.1453827542182757,142.76,1
27.796875,0.07598748305620799,111.19,1
27.8125,-0.013497717120281914,60.66,1
27.828125,-0.06997639475358546,-2.39,1
27.84375,-0.08126871213567279,-69.59,1
27.859375,0.007869218880463163,-131.59,1
27.875,0.3180311208974324,-179.49,1
27.890625,0.1789442426178954,-206.67,1
27.90625,0.1785519930100416,-211.31,1
27.921875,0.026600981269923354,-197.16,1
27.9375,-0.12746261850639473,-170.47,1
27.953125,-0.14993850279178522,-142.05,1
27.96875,-0.19550737834688472,-115.06,1
27.984375,-0.10395566750938645,-91.39,1
28.0,-0.07465725139334438,-71.09,1
28.015625,-0.11224496390774728,-53.29,1
28.03125,-0.08497878782671925,-37.29,1
28.046875,-0.1303229103236995,-23.55,1
28.0625,-0.10686667406587605,-13.02,1
28.078125,-0.1225392759592057,-4.76,1
28.09375,-0.06590404465442089,3.2,1
28.109375,-0.09021538518478227,13.75,1
28.125,-0.056627027847889845,27.06,1
28.140625,0.004430837038253415,42.12,1
28.15625,0.009115954120485395,56.39,1
28.171875,0.00025915058786508754,66.51,1
28.1875,0.03291310494771646,68.63,1
28.203125,0.01618900949270955,59.71,1
28.21875,-0.009423850396035714,39.69,1
28.234375,-0.01158806353521315,11.38,1
28.25,-0.036526868123209995,-19.97,1
28.265625,-0.02452241914148309,-49.35,1
28.28125,0.02001905820583384,-72.47,1
28.296875,-0.019981802130847208,-86.74,1
28.3125,0.016529415323351258,-90.9,1
28.328125,0.021333537322893625,-86.09,1
28.34375,0.021335300882846603,-75.42,1
28.359375,0.03607915173430996,-62.2,1
28.375,0.0019480228252096426,-48.86,1
28.390625,0.027774972285540125,-36.3,1
28.40625,0.07336638051886056,-25.26,1
28.421875,0.182366264976192,-15.72,1
28.4375,0.11258260273388956,-6.93,1
28.453125,0.03772766211849859,3.73,1
28.46875,-0.004860325083895804,18.19,1
28.484375,-0.008404716850715145,35.96,1
28.5,-0.07202364631332,54.3,1
28.515625,0.062076704515549364,69.78,1
28.53125,0.35237356406375825,79.56,1
28.546875,0.31183344276048874,81.58,1
28.5625,0.21811676633462748,75.85,1
28.578125,-0.00504188438600708,64.84,1
28.59375,-0.2003063984811608,54.9,1
28.609375,-0.18915270089750555,52.52,1
28.625,-0.16007733248966108,61.02,1
28.640625,-0.1658147460872674,79.31,1
28.65625,-0.18741642131610795,102.77,1
28.671875,-0.13376191299884252,124.14,1
28.6875,-0.17452966200221223,135.02,1
28.703125,-0.14985285433961,129.35,1
28.71875,-0.15199816914776054,93.63,1
28.734375,-0.17119026568496948,28.52,1
28.75,-0.20239349276989674,-47.98,1
28.765625,-0.17610310923755992,-113.26,1
28.78125,-0.11414558913128912,-157.08,1
28.796875,-0.007005347144026684,-183.7,1
28.8125,-0.027774425310671882,-202.2,1
28.828125,0.01851872415800089,-217.69,1
28.84375,0.016748457301249863,-228.79,1
28.859375,0.014734854076921877,-227.86,1
28.875,-0.017538744578900894,-206.76,1
28.890625,-0.009982086038682737,-163.85,1
28.90625,-0.03324490375913443,-105.97,1
28.921875,0.015675040916166127,-44.88,1
28.9375,-0.011883025590100828,9.54,1
28.953125,0.07152254901996283,54.44,1
28.96875,0.01898636570314745,88.17,1
28.984375,0.06767334724640202,114.59,1
29.0,0.09100181841930809,138.86,1
29.015625,0.09924036604677879,166.31,1
29.03125,0.05864384094847183,199.66,1
29.046875,0.11972629803680937,238.64,1
29.0625,0.10279261062648538,280.9,1
29.078125,0.15066328086369596,323.91,1
29.09375,0.0821068164495483,365.21,1
29.109375,0.06495384128756945,401.26,1
29.125,0.05900572906508727,427.71,1
29.140625,0.028376207042053042,438.16,1
29.15625,0.003276103118120124,427.79,1
29.171875,0.03983007777816341,395.43,1
29.1875,0.04537688494677125,344.79,1
29.203125,0.04391712678766991,282.58,1
29.21875,0.03677590277092764,216.66,1
29.234375,0.03637847879666934,153.9,1
29.25,0.06474052797479941,98.51,1
29.265625,0.12953360382180387,52.22,1
29.28125,0.06431711032455338,12.32,1
29.296875,0.0005059622288363212,-25.52,1
29.3125,-0.06095516013196414,-64.98,1
29.328125,-0.1396387425551357,-107.6,1
29.34375,-0.17384267997281308,-154.39,1
29.359375,-0.21857223379566273,-206.17,1
29.375,-0.024191630603955714,-263.02,1
29.390625,0.3635990057303684,-323.71,1
29.40625,0.4749587049824257,-372.57,1
29.421875,0.11550041459964552,-392.28,1
29.4375,-0.13746144635304464,-376.12,1
29.453125,-0.1691742109101667,-332.94,1
29.46875,-0.23247719326156255,-278.23,1
29.484375,-0.3271428170934492,-225.75,1
29.5,-0.33691482778740933,-183.9,1
29.515625,-0.3226564715437912,-155.72,1
29.53125,-0.2186340570339306,-139.88,1
29.546875,-0.28580157042013377,-132.09,1
29.5625,-0.30396792137942596,-129.13,1
29.578125,-0.2800602128597349,-129.14,1
29.59375,-0.32449815894324857,-133.15,1
29.609375,-0.3882489200652496,-137.27,1
29.625,-0.25682109810803827,-137.49,1
29.640625,-0.13002096462322224,-130.66,1
29.65625,-0.0551966251696493,-114.77,1
29.671875,0.02419505155699633,-89.53,1
29.6875,0.055174654109010096,-56.66,1
29.703125,0.02993157049562108,-21.53,1
29.71875,0.05994386736211821,8.61,1
29.734375,0.03166225402250505,27.48,1
29.75,-0.08316114290310916,32.72,1
29.765625,-0.0204055326477383,25.35,1
29.78125,0.03484650430785244,8.42,1
29.796875,0.07467650568858651,-12.14,1
29.8125,0.06270478342889822,-29.05,1
29.828125,0.07971824940401284,-36.09,1
29.84375,0.08491814983085308,-31.13,1
29.859375,0.10836226811180183,-16.22,1
29.875,0.09189757196793508,4.13,1
29.890625,0.08721393310330641,25.63,1
29.90625,0.10261630085604827,44.74,1
29.921875,0.1271644366794826,59.56,1
29.9375,0.08063484535315549,70.11,1
29.953125,0.14627013003274303,77.78,1
29.96875,0.1752527147157699,84.65,1
29.984375,0.15510935469756176,92.53,1
30.0,0.15351293308916783,102.93,1
30.015625,0.09363449107479842,116.76,1
30.03125,0.04252877713319889,134.16,1
30.046875,-0.02715040305627645,153.4,1
30.0625,-0.005206405156629607,171.15,1
30.078125,0.015917664608047128,183.84,1
30.09375,0.04662024255406709,188.82,1
30.109375,0.13650741206393907,185.3,1
30.125,0.07969943903679291,174.27,1
30.140625,0.001449438142420673,157.82,1
30.15625,-0.07493307720291187,138.14,1
30.171875,-0.07924254947267388,116.98,1
30.1875,-0.10753782039130101,95.11,1
30.203125,-0.023636425330238613,72.68,1
30.21875,0.12707578365142233,49.72,1
30.234375,0.2185570778024681,26.19,1
30.25,0.3538058364933028,2.16,1
30.265625,-0.036359192987039685,-22.19,1
30.28125,-0.20987949803856792,-46.28,1
30.296875,-0.17832072052052927,-69.09,1
30.3125,-0.21537799316463524,-89.1,1
30.328125,-0.20233447752605818,-104.62,1
30.34375,-0.19596154840693508,-114.26,1
30.359375,-0.16606538357941764,-117.16,1
30.375,-0.14786597619022393,-113.02,1
30.390625,-0.14751174788172886,-101.91,1
30.40625,-0.15511640173649305,-84.08,1
30.421875,-0.14089798497188735,-60.58,1
30.4375,-0.13278366970665287,-34.14,1
30.453125,-0.1131405472558699,-9.03,1
30.46875,-0.051078768512447734,10.23,1
30.484375,0.013529188512287996,20.84,1
30.5,0.07911874260629827,23.02,1
30.515625,0.13039076187925408,19.67,1
30.53125,0.11121934043093153,14.82,1
30.546875,0.11248120410022594,11.49,1
30.5625,0.06896765156453334,10.37,1
30.578125,0.06254584075357392,9.42,1
30.59375,0.08822061007874908,5.94,1
30.609375,0.09156389508572811,-0.92,1
30.625,0.07262816423732615,-9.01,1
30.640625,0.09317416904825723,-14.29,1
30.65625,0.08479072855142587,-13.48,1
30.671875,0.0765137396571783,-5.92,1
30.6875,0.06359369850788332,6.2,1
30.703125,0.08635527121466176,19.08,1
30.71875,0.08249455854037153,27.93,1
30.734375,0.08407426389286125,29.14,1
30.75,0.058479969198671475,21.86,1
30.765625,0.09756414194801276,8.3,1
30.78125,0.1013903662803411,-7.59,1
30.796875,0.089218078996539,-22.09,1
30.8125,0.13439046967541987,-33.01,1
30.828125,0.0987119165311505,-39.84,1
30.84375,0.07010546667371077,-43.45,1
30.859375,-0.004938966056401342,-47.2,1
30.875,0.03947008954931416,-55.21,1
30.890625,0.06249579097152108,-70.65,1
30.90625,0.10609280839519221,-94.49,1
30.921875,0.10073948744652605,-126.04,1
30.9375,-0.03711504050820772,-163.92,1
30.953125,-0.013181068075224392,-206.06,1
30.96875,0.03701004316893678,-248.78,1
30.984375,-0.04401118084972876,-276.64,1
31.0,-0.005234522536021903,-273.45,1
31.015625,0.21875404541714197,-231.71,1
31.03125,0.4215434991370986,-159.97,1
31.046875,0.40334522294584785,-77.79,1
31.0625,0.0656373242441703,-4.32,1
31.078125,-0.16901486086431508,49.12,1
31.09375,-0.1756015312020735,80.58,1
31.109375,-0.198119338931804,95.58,1
31.125,-0.18518858026099067,102.9,1
31.140625,-0.16951144514820468,108.42,1
31.15625,-0.13083996150618823,113.11,1
31.171875,-0.12354975648588579,114.41,1
31.1875,-0.12073382935447431,109.8,1
31.203125,-0.15071910721004173,99.19,1
31.21875,-0.17420394600812877,85.6,1
31.234375,-0.15222763590700228,73.84,1
31.25,-0.13469855449262794,68.22,1
31.265625,-0.08863318369126011,70.04,1
31.28125,0.004378488034788018,76.34,1
31.296875,0.0796851614332469,79.57,1
31.3125,0.10931133932039025,73.41,1
31.328125,0.13169353446551235,56.34,1
31.34375,0.1181187259876712,31.65,1
31.359375,0.09899009862623159,5.4,1
31.375,0.10063159638611482,-16.95,1
31.390625,0.0510066517285794,-32.86,1
31.40625,0.03426659883352467,-43.48,1
31.421875,0.08572660502983548,-53.44,1
31.4375,0.05048252595506495,-67.91,1
31.453125,0.06781396915355527,-89.25,1
31.46875,0.07932790658172033,-114.78,1
31.484375,0.06865916679960865,-138.28,1
31.5,0.037669892463208184,-152.83,1
31.515625,0.030188520733739677,-153.5,1
31.53125,0.01967823800461198,-139.31,1
31.546875,-0.014830901644444667,-113.43,1
31.5625,-0.003979837383738253,-81.95,1
31.578125,-0.010024562675386995,-50.28,1
31.59375,0.010371274354267481,-24.13,1
31.609375,-0.012863087919770552,-6.48,1
31.625,0.0032632611610436684,1.96,1
31.640625,-0.009341652435013918,3.27,1
31.65625,0.028657417540355827,2.28,1
31.671875,0.015105270613406418,5.09,1
31.6875,-0.006429169884532473,16.71,1
31.703125,-0.0007206190029263107,38.78,1
31.71875,-0.008430406261707211,69.05,1
31.734375,0.024647127000188597,101.87,1
31.75,0.027836466160266176,132.05,1
31.765625,0.01473887609312906,155.22,1
31.78125,0.01279937488091784,170.54,1
31.796875,0.07268664126578916,181.44,1
31.8125,0.14969282243238982,193.8,1
31.828125,0.142369935168021,212.97,1
31.84375,0.07249083698942727,241.38,1
31.859375,0.05355080240976676,277.8,1
31.875,0.03936787133095929,316.76,1
31.890625,0.04498831237402661,351.14,1
31.90625,0.16334933307164815,371.12,1
31.921875,0.3683549787699959,367.96,1
31.9375,0.6695276711525857,337.59,1
31.953125,0.542254632557436,281.95,1
31.96875,0.038328727061929455,208.02,1
31.984375,-0.1903876460510304,125.6,1
32.0,-0.19290757258391478,44.61,1
32.015625,-0.2164607446862375,-31.83,1
32.03125,-0.2117873288842329,-91.83,1
32.046875,-0.23204529456585915,-126.46,1
32.0625,-0.191751412243006,-135.94,1
32.078125,-0.26243424237017543,-127.11,1
32.09375,-0.28789689229985554,-107.25,1
32.109375,-0.33147798984012344,-82.04,1
32.125,-0.32363763748089247,-56.12,1
32.140625,-0.35019104346420954,-33.35,1
32.15625,-0.3245024162875265,-18.28,1
32.171875,-0.24800914508390362,-10.58,1
32.1875,-0.13534354647863167,-9.94,1
32.203125,-0.03163603185398569,-15.25,1
32.21875,0.04411607419793005,-24.33,1
32.234375,0.0731015063417954,-35.56,1
32.25,0.06514453017182419,-49.32,1
32.265625,0.032027197372903465,-68.24,1
32.28125,0.016856447329561968,-89.26,1
32.296875,0.07263662874832111,-109.95,1
32.3125,0.04032234331618501,-127.03,1
32.328125,0.012889440593647468,-139.15,1
32.34375,0.004864320909852203,-145.75,1
32.359375,-0.035088261418300105,-146.32,1
32.375,-0.005183208406939324,-141.11,1
32.390625,-0.01764056204198346,-131.76,1
32.40625,-0.08887319124002346,-121.06,1
32.421875,-0.05077291376238565,-111.42,1
32.4375,-0.05027465360371065,-104.66,1
32.453125,-0.06485048842024142,-100.0,1
32.46875,-0.06972115323798098,-95.97,1
32.484375,-0.08110681041308128,-90.85,1
32.5,-0.03987075496661645,-83.28,1
32.515625,0.005968525744148628,-73.35,1
32.53125,0.005697782828056161,-62.66,1
32.546875,0.02893286523864465,-53.41,1
32.5625,0.04849809040709798,-47.31,1
32.578125,0.07745472772062294,-45.6,1
32.59375,0.08298376817775385,-48.11,1
32.609375,0.07741813186244151,-53.87,1
32.625,0.10059066039187477,-60.47,1
32.640625,0.10077839047841111,-63.52,1
32.65625,0.07645368143822318,-57.45,1
32.671875,0.08522866950670151,-37.59,1
32.6875,0.06330905797791353,-3.51,1
32.703125,0.053336900445193916,39.5,1
32.71875,0.07048785277363945,80.51,1
32.734375,0.1447217750161344,107.4,1
32.75,0.10670990434596685,112.03,1
32.765625,0.07474044839757002,94.24,1
32.78125,0.03264678808708506,62.0,1
32.796875,0.016744623796687414,26.59,1
32.8125,0.023231516000349076,-1.86,1
32.828125,0.05971788374694378,-19.02,1
32.84375,0.31338162814526166,-25.94,1
32.859375,0.4245935748781638,-26.95,1
32.875,0.4251213434393214,-25.77,1
32.890625,0.03699513926555503,-23.46,1
32.90625,-0.17271675404010686,-18.69,1
32.921875,-0.1834455475754615,-9.9,1
32.9375,-0.18512094390475733,2.5,1
32.953125,-0.13418803968418702,16.0,1
32.96875,-0.18726974587616463,26.32,1
32.984375,-0.12856330328042173,30.75,1
33.0,-0.14868906923102782,29.47,1
33.015625,-0.11812699028231874,25.23,1
33.03125,-0.03891642223090143,21.81,1
33.046875,-0.03755397340657281,22.31,1
33.0625,-0.1663676884145464,27.19,1
33.078125,-0.14596404331417664,34.2,1
33.09375,-0.09304553575475244,39.56,1
33.109375,-0.06436659891012537,38.73,1
33.125,-0.008776715109420227,29.76,1
33.140625,0.0608700638300491,13.54,1
33.15625,0.09846478239631909,-6.79,1
33.171875,0.15733888357291617,-27.61,1
33.1875,0.16451248494739676,-46.35,1
33.203125,0.1740850840340181,-62.79,1
33.21875,0.07880361196697744,-78.93,1
33.234375,0.0017420396394505864,-92.36,1
33.25,-0.07900268064461262,-105.48,1
33.265625,-0.08889490774881124,-120.47,1
33.28125,-0.06916950699597767,-138.43,1
33.296875,-0.04504899052481441,-159.03,1
33.3125,-0.02637015810813778,-180.06,1
33.328125,-0.010362880249458525,-197.38,1
33.34375,0.049227919570513035,-205.58,1
33.359375,0.12725462002667473,-199.74,1
33.375,0.0718135848906645,-177.5,1
33.390625,0.19723620483313367,-141.84,1
33.40625,0.2840910403177662,-99.56,1
33.421875,0.3183946078830977,-59.46,1
33.4375,0.28445243035837336,-29.14,1
33.453125,0.19542131504564086,-12.05,1
33.46875,0.1755259591303924,-6.8,1
33.484375,0.13708664641239396,-8.85,1
33.5,0.16244899371791371,-13.17,1
33.515625,0.1732092754703417,-16.36,1
33.53125,0.140309269755411,-18.62,1
33.546875,0.06052099767259474,-20.21,1
33.5625,0.012455811354287347,-21.21,1
33.578125,0.010217140427490026,-20.71,1
33.59375,-0.0015140083985606984,-17.34,1
33.609375,0.05569293370112357,-10.23,1
33.625,0.364382652629728,0.02,1
33.640625,0.282466224804058,11.37,1
33.65625,0.21663098990154603,21.4,1
33.671875,-0.05214584989138838,27.28,1
33.6875,-0.18270308781840774,27.88,1
33.703125,-0.16419590840897055,23.44,1
33.71875,-0.18217080870666263,15.31,1
33.734375,-0.13043907992119363,5.14,1
33.75,-0.17878483719243177,-5.9,1
33.765625,-0.15167323153014053,-17.51,1
33.78125,-0.17620251705719725,-30.2,1
33.796875,-0.1880124221690227,-44.58,1
33.8125,-0.1720331164605952,-61.3,1
33.828125,-0.22477527019084168,-80.15,1
33.84375,-0.22454095824644205,-100.17,1
33.859375,-0.12732833840754662,-119.84,1
33.875,-0.07158802881394705,-137.52,1
33.890625,-0.08445871370496887,-151.82,1
33.90625,-0.06036087605331433,-161.69,1
33.921875,-0.016128429299897773,-168.51,1
33.9375,-0.08158079207598444,-172.93,1
33.953125,-0.04582762816525912,-175.59,1
33.96875,-0.03797232600885451,-176.78,1
33.984375,-0.03270283276014131,-176.64,1
34.0,-0.10324017680983695,-175.13,1
34.015625,-0.04742670630793664,-172.26,1
34.03125,-0.2611534095400019,-168.19,1
34.046875,-0.09428140715652607,-163.23,1
34.0625,0.009616565297019295,-157.82,1
34.078125,0.05503051395398835,-152.09,1
34.09375,-0.023348205371263663,-146.14,1
34.109375,-0.07804084642868044,-139.89,1
34.125,-0.09946776725700703,-133.08,1
34.140625,-0.012486345347443506,-125.25,1
34.15625,0.074712646339048,-115.72,1
34.171875,0.07368584085889278,-103.74,1
34.1875,0.10931543016010843,-88.57,1
34.203125,0.18147716423379548,-69.76,1
34.21875,0.1524320380796357,-47.06,1
34.234375,0.015357474975409255,-20.94,1
34.25,-0.03989881219238136,7.52,1
34.265625,-0.13881133036780519,36.79,1
34.28125,-0.10776334961600686,65.28,1
34.296875,-0.09403241033736681,91.73,1
34.3125,0.2165605208168011,115.5,1
34.328125,0.16568837539729142,136.61,1
34.34375,0.1366808908381819,155.49,1
34.359375,-0.03729792744572266,172.68,1
34.375,-0.23110723586610818,188.33,1
34.390625,-0.10580832303560034,202.1,1
34.40625,-0.1022089368258882,213.31,1
34.421875,-0.09357611536262311,221.4,1
34.4375,-0.06988633398549325,226.26,1
34.453125,-0.050062442000442936,228.51,1
34.46875,-0.12692599728640988,229.44,1
34.484375,-0.1267091154467855,230.75,1
34.5,-0.2356196838153765,234.26,1
34.515625,-0.17631700968451122,241.43,1
34.53125,-0.19369779782068888,252.98,1
34.546875,-0.19484961778789145,268.41,1
34.5625,-0.2026343429739806,285.64,1
34.578125,-0.10445615707562171,301.05,1
34.59375,-0.02688090673758641,310.47,1
34.609375,0.07982248678498305,310.66,1
34.625,0.05465689739965212,300.96,1
34.640625,0.10651285340538236,283.89,1
34.65625,0.06491170855791817,264.26,1
34.671875,0.05023870954770983,247.1,1
34.6875,-0.039649696407960955,235.54,1
34.703125,0.06013165440602358,229.66,1
34.71875,0.029072158354618124,226.9,1
34.734375,0.015480520020922808,223.68,1
34.75,0.036980327583188914,217.06,1
34.765625,0.07353319800360272,205.79,1
34.78125,0.04570431293471182,190.25,1
34.796875,0.05961284878648704,171.74,1
34.8125,0.0013002146322493384,151.72,1
34.828125,-0.0346800447052072,131.29,1
34.84375,0.009250464905593182,110.78,1
34.859375,0.05021459643007161,89.67,1
34.875,0.123731923909604,66.77,1
34.890625,0.14456098239654708,40.66,1
34.90625,0.015477499582850654,10.46,1
34.921875,0.0804336092749115,-23.54,1
34.9375,0.028057507925005918,-59.94,1
34.953125,0.015406421329746924,-96.83,1
34.96875,0.0021284274603352543,-132.59,1
34.984375,-0.05648254903303765,-166.22,1
35.0,0.08788896969971324,-197.21,1
35.015625,0.24536471834583737,-225.25,1
35.03125,0.6088030164943791,-250.3,1
35.046875,0.1895120038324794,-272.78,1
35.0625,-0.2376528115733451,-293.6,1
35.078125,-0.19158649888710821,-313.7,1
35.09375,-0.14435260428671684,-332.85,1
35.109375,-0.12032833156714501,-348.84,1
35.125,-0.08597512108930024,-357.53,1
35.140625,-0.0976062518865378,-354.3,1
35.15625,-0.08102725318117757,-336.03,1
35.171875,-0.09211675522900763,-302.71,1
35.1875,-0.12462049059243305,-257.21,1
35.203125,-0.18127106060529555,-203.8,1
35.21875,-0.23094397265186975,-146.41,1
35.234375,-0.20141450435807778,-87.69,1
35.25,-0.17310093074427063,-29.62,1
35.265625,-0.08065089343048953,25.24,1
35.28125,-0.04608351237624504,73.21,1
35.296875,0.05466692497895834,110.06,1
35.3125,0.06904976447830656,132.99,1
35.328125,0.02976051521651609,142.46,1
35.34375,0.0067781254216075166,142.67,1
35.359375,-0.020998945972508527,140.17,1
35.375,0.01445144748411263,141.39,1
35.390625,-0.014184257753531796,149.88,1
35.40625,-0.08355629090952639,164.87,1
35.421875,-0.10499219168455277,181.81,1
35.4375,-0.06703830732364141,194.58,1
35.453125,-0.07272070113523231,198.07,1
35.46875,-0.08060701164235096,190.08,1
35.484375,-0.12642416010321458,171.63,1
35.5,-0.07428304391221628,146.05,1
35.515625,-0.06138905441169871,117.52,1
35.53125,-0.06254337040202894,89.8,1
35.546875,-0.046821077619082385,65.76,1
35.5625,0.01832624152880705,47.38,1
35.578125,0.06531977090735562,35.72,1
35.59375,-0.06368224613855632,30.91,1
35.609375,-0.06536657558375582,31.89,1
35.625,-0.07099255424648891,36.42,1
35.640625,-0.0457925492805019,41.55,1
35.65625,-0.052662223664039005,44.44,1
35.671875,-0.00026874206721683776,43.11,1
35.6875,0.21910394834072844,37.1,1
35.703125,0.6143989255794023,27.72,1
35.71875,0.21341311660909149,17.79,1
35.734375,-0.16967440374964804,10.92,1
35.75,-0.16421513973410282,10.36,1
35.765625,-0.1771484263168282,17.73,1
35.78125,-0.20179397442132121,32.33,1
35.796875,-0.2076584991965185,51.36,1
35.8125,-0.18565326724777387,71.17,1
35.828125,-0.17011933777099214,89.02,1
35.84375,-0.1872090762255289,104.24,1
35.859375,-0.18567608693692148,117.96,1
35.875,-0.23524244710817047,131.92,1
35.890625,-0.30745999413610225,146.81,1
35.90625,-0.2760723027464353,161.39,1
35.921875,-0.21370233784709747,172.94,1
35.9375,-0.08037727237109728,178.63,1
35.953125,0.03602082312438798,176.92,1
35.96875,0.04929754304792437,168.17,1
35.984375,0.05089839091243175,154.35,1
36.0,0.023219190310159916,137.95,1
36.015625,0.03437941782509361,121.18,1
36.03125,-0.002167662571573484,105.51,1
36.046875,0.008813004813663117,91.71,1
36.0625,0.02964493184187327,80.09,1
36.078125,0.012698155169458766,70.62,1
36.09375,0.01907364908419792,62.97,1
36.109375,0.007062207878046045,56.42,1
36.125,0.0226963707432828,49.86,1
36.140625,-0.008296678769904375,41.97,1
36.15625,0.039353020218824135,31.44,1
36.171875,0.026678222983068624,17.39,1
36.1875,0.0402842230930079,-0.24,1
36.203125,0.11641628885891972,-20.38,1
36.21875,0.16447406533759093,-41.14,1
36.234375,0.17975088278478896,-60.25,1
36.25,0.10774441830848407,-76.01,1
36.265625,0.060382630914914796,-87.79,1
36.28125,-0.013492640946597717,-96.1,1
36.296875,0.006920257594661762,-102.01,1
36.3125,-0.03367037554797449,-106.41,1
36.328125,0.14181906027097696,-109.54,1
36.34375,0.23345815684417784,-110.85,1
36.359375,0.4560541860268857,-109.55,1
36.375,0.2272100468504837,-105.1,1
36.390625,-0.14044352363974952,-97.38,1
36.40625,-0.13273881279872823,-86.78,1
36.421875,-0.18763765970848367,-73.8,1
36.4375,-0.16636565308828655,-58.96,1
36.453125,-0.15957412737293894,-42.92,1
36.46875,-0.12780505982576604,-26.72,1
36.484375,-0.11054640853199468,-12.01,1
36.5,-0.12151475917678756,-0.72,1
36.515625,-0.12913552933453562,5.6,1
36.53125,-0.13454626054753982,6.7,1
36.546875,-0.1373876734144832,4.01,1
36.5625,-0.10918289677978617,0.21,1
36.578125,-0.05945982542103413,-2.03,1
36.59375,0.02256205357810818,-1.49,1
36.609375,0.05728425107943885,0.95,1
36.625,0.08370155288009552,2.65,1
36.640625,0.0692329642373141,0.75,1
36.65625,0.08555965030817594,-6.35,1
36.671875,0.07112618560919125,-18.06,1
36.6875,0.060888674466277666,-31.88,1
36.703125,0.027953751445723894,-44.61,1
36.71875,0.04026202198701454,-53.87,1
36.734375,0.04518068322745388,-58.93,1
36.75,0.049212050376223046,-60.62,1
36.765625,0.04563209766432282,-60.7,1
36.78125,0.06039272569291299,-60.76,1
36.796875,0.07152478728161689,-61.58,1
36.8125,0.08407229343026483,-62.93,1
36.828125,0.11397511998483303,-63.87,1
36.84375,0.16236938273367915,-63.04,1
36.859375,0.19004685721723572,-59.21,1
36.875,0.12973485989641698,-51.74,1
36.890625,0.0823213402005692,-40.86,1
36.90625,0.048600670192029696,-27.91,1
36.921875,0.025884132937225444,-15.05,1
36.9375,-0.004992572061571874,-4.8,1
36.953125,0.15490584387701212,0.8,1
36.96875,0.3217027187317378,0.82,1
36.984375,0.4494748710031803,-4.17,1
37.0,0.32424822728584546,-12.26,1
37.015625,-0.08545782182496765,-20.97,1
37.03125,-0.0993648025615869,-28.1,1
37.046875,-0.1429782188078473,-32.53,1
37.0625,-0.11898948935875305,-34.45,1
37.078125,-0.13174961361220397,-34.84,1
37.09375,-0.12439795028156514,-34.74,1
37.109375,-0.1230965164298251,-34.47,1
37.125,-0.10267862218321103,-33.52,1
37.140625,-0.11022841098563428,-30.93,1
37.15625,-0.09929204504320586,-26.02,1
37.171875,-0.11473197141954497,-18.93,1
37.1875,-0.10450496849853824,-10.63,1
37.203125,-0.07071161441041955,-2.49,1
37.21875,0.005066357943930145,4.36,1
37.234375,0.08358321171982112,9.45,1
37.25,0.11786336821702875,13.08,1
37.265625,0.12198855077949076,15.91,1
37.28125,0.10922617428149288,18.54,1
37.296875,0.08065803889556683,21.14,1
37.3125,0.06427560035291982,23.37,1
37.328125,0.06769306648160658,24.38,1
37.34375,0.060343971504442706,23.07,1
37.359375,0.05386375896160882,18.41,1
37.375,0.04305018985562976,9.83,1
37.390625,0.05666261975532721,-2.48,1
37.40625,0.04749487384068611,-17.41,1
37.421875,0.01739123630994654,-33.23,1
37.4375,0.032919796353134856,-48.2,1
37.453125,0.06612141424243169,-61.31,1
37.46875,0.10549306097638406,-72.65,1
37.484375,0.18605377642988186,-83.16,1
37.5,0.10238608467775123,-93.83,1
37.515625,0.024903747451673668,-104.81,1
37.53125,-0.021612124434156017,-114.93,1
37.546875,-0.02314506009224556,-121.96,1
37.5625,-0.043945015465476335,-123.57,1
37.578125,0.04056531888443798,-118.46,1
37.59375,0.22048389575763724,-106.96,1
37.609375,0.5339218995215664,-90.89,1
37.625,0.42894473423517404,-72.7,1
37.640625,-0.05866921240857662,-54.51,1
37.65625,-0.15408643671027536,-37.5,1
37.671875,-0.2008445103437001,-21.97,1
37.6875,-0.188432911986433,-7.47,1
37.703125,-0.18097751267226342,6.75,1
37.71875,-0.15374724246334717,21.65,1
37.734375,-0.14362371444754635,38.36,1
37.75,-0.13184871095200743,57.72,1
37.765625,-0.13927076131139057,79.42,1
37.78125,-0.15077436065548427,101.38,1
37.796875,-0.18822463394024716,120.07,1
37.8125,-0.19623966733161965,131.75,1
37.828125,-0.18591995009349632,134.74,1
37.84375,-0.10723695818960954,131.13,1
37.859375,-0.009555813429712623,126.9,1
37.875,0.05364525187865026,129.42,1
37.890625,0.06915287630457197,143.61,1
37.90625,0.07092320980528748,168.8,1
37.921875,0.061842450448765456,198.39,1
37.9375,0.056826664103620896,222.93,1
37.953125,0.04066771312507992,234.04,1
37.96875,0.046731664444750104,228.06,1
37.984375,0.06065166186177481,206.93,1
38.0,0.056517409145759,176.59,1
38.015625,0.0651599417731323,143.81,1
38.03125,0.07581330356975581,113.54,1
38.046875,0.06934264632010338,88.09,1
38.0625,0.061673593479439216,67.85,1
38.078125,0.07073822377585907,53.23,1
38.09375,0.09929260939045956,44.56,1
38.109375,0.15736596364330366,42.03,1
38.125,0.19103184668056153,44.89,1
38.140625,0.10030607658541657,51.38,1
38.15625,0.050371018353918606,59.01,1
38.171875,-0.01132632391438024,65.17,1
38.1875,-0.011310113780721822,68.01,1
38.203125,-0.028868014415557315,66.88,1
38.21875,0.09754357470260126,63.64,1
38.234375,0.2266293356654426,60.99,1
38.25,0.5893145753562437,61.69,1
38.265625,0.34548570740152335,67.03,1
38.28125,-0.11176642009743627,76.19,1
38.296875,-0.1761629646267745,86.64,1
38.3125,-0.19907835984172892,95.36,1
38.328125,-0.19538739896476215,100.35,1
38.34375,-0.19432044340747687,101.22,1
38.359375,-0.17280804233144229,100.11,1
38.375,-0.16098920163284458,98.65,1
38.390625,-0.15105600682409737,96.76,1
38.40625,-0.16644559156211966,92.57,1
38.421875,-0.17617510221115376,83.95,1
38.4375,-0.20418062890868227,70.36,1
38.453125,-0.2123039771904678,53.21,1
38.46875,-0.17712697274226347,34.61,1
38.484375,-0.07470581521684644,7.84,1
38.5,0.02532085630807218,-30.86,1
38.515625,0.08559461343811642,-81.54,1
38.53125,0.09390491128795019,-138.6,1
38.546875,0.09134331199582447,-192.16,1
38.5625,0.08034984090745395,-232.25,1
38.578125,0.06208760443729896,-252.96,1
38.59375,0.054362789342425485,-254.54,1
38.609375,0.060992520050785766,-242.36,1
38.625,0.060255115304345415,-223.79,1
38.640625,0.06014156952439195,-203.4,1
38.65625,0.06338503743203021,-183.04,1
38.671875,0.05884648670396552,-161.75,1
38.6875,0.05296285807171126,-139.27,1
38.703125,0.05593954950382515,-117.78,1
38.71875,0.04108586908202663,-101.46,1
38.734375,0.04783119842328979,-94.33,1
38.75,0.04220271826518885,-97.59,1
38.765625,0.060206373786811755,-108.4,1
38.78125,0.0947684475191827,-119.9,1
38.796875,0.1662097577053846,-125.15,1
38.8125,0.1473996921928974,-120.3,1
38.828125,0.08182097242313932,-105.32,1
38.84375,0.009149174831825767,-84.22,1
38.859375,0.001881058606522139,-62.35,1
38.875,-0.031185174184517918,-43.72,1
38.890625,0.03217803944129248,-29.82,1
38.90625,0.13308273970731407,-20.23,1
38.921875,0.38208216739694684,-13.78,1
38.9375,0.6159133903691476,-10.52,1
38.953125,0.09046218293677236,-11.5,1
38.96875,-0.1906209425555463,-17.5,1
38.984375,-0.1969036509524171,-27.63,1
39.0,-0.184950381548761,-39.08,1
39.015625,-0.22545720212509585,-48.38,1
39.03125,-0.20229553133435832,-53.34,1
39.046875,-0.16728935467820638,-53.95,1
39.0625,-0.14822884201,-51.48,1
39.078125,-0.1519841039225485,-47.25,1
39.09375,-0.18219290757962123,-41.42,1
39.109375,-0.1750842408161387,-33.02,1
39.125,-0.17579617418881593,-21.07,1
39.140625,-0.18378203668886828,-5.61,1
39.15625,-0.11705693302459612,11.79,1
39.171875,-0.0014088905308327364,28.45,1
39.1875,0.08236756073838647,41.48,1
39.203125,0.11305205133795043,48.58,1
39.21875,0.10743522629203651,48.49,1
39.234375,0.07997889430843862,41.24,1
39.25,0.1029750044657241,28.44,1
39.265625,0.09228029567906776,13.32,1
39.28125,0.08508385756790654,0.31,1
39.296875,0.0649838039014236,-6.38,1
39.3125,0.09052336886385444,-4.48,1
39.328125,0.12059966294320984,5.22,1
39.34375,0.12009987263289336,18.98,1
39.359375,0.09342556111886288,31.88,1
39.375,0.07191148240180113,39.82,1
39.390625,0.0637658911594998,40.99,1
39.40625,0.10301853848092953,36.0,1
39.421875,0.04980844678240736,27.1,1
39.4375,0.02987734764999078,17.01,1
39.453125,0.02349835472274076,8.26,1
39.46875,0.02160649653839737,2.96,1
39.484375,0.05344177407240922,2.57,1
39.5,0.03486595103685034,7.5,1
39.515625,0.05098121466571472,16.46,1
39.53125,0.11732051620051026,26.19,1
39.546875,0.08632781609166701,32.16,1
39.5625,0.02834136827241004,30.36,1
39.578125,-0.07597840818891728,19.07,1
39.59375,-0.04376650260102596,-0.02,1
39.609375,-0.07278243440571057,-22.35,1
39.625,0.00879621941916567,-42.53,1
39.640625,0.10386419036929831,-56.52,1
39.65625,0.4701583029127663,-62.98,1
39.671875,0.47872632174740876,-63.13,1
39.6875,-0.06090966845966465,-59.33,1
39.703125,-0.2221874145867002,-53.71,1
39.71875,-0.2288023973398321,-47.51,1
39.734375,-0.2302696688460299,-41.31,1
39.75,-0.2039158429498865,-35.85,1
39.765625,-0.22222728158463753,-32.29,1
39.78125,-0.19688502745663808,-31.8,1
39.796875,-0.18617147623791488,-34.83,1
39.8125,-0.17032701292892885,-40.61,1
39.828125,-0.20283230238292146,-47.59,1
39.84375,-0.2435450722544142,-54.31,1
39.859375,-0.22608101007877235,-60.2,1
39.875,-0.20661078419338866,-65.65,1
39.890625,-0.1315273819750818,-71.25,1
39.90625,-0.044327114250523686,-77.0,1
39.921875,0.052193583207030624,-81.95,1
39.9375,0.0946013062271003,-84.49,1
39.953125,0.0943512158757541,-83.14,1
39.96875,0.07309959670317089,-77.4,1
39.984375,0.039629486031061555,-68.13,1
40.0,0.039619786207914516,-57.57,1
40.015625,0.04455873841240799,-48.86,1
40.03125,0.045379031744962654,-45.52,1
40.046875,0.05657518690582003,-50.66,1
40.0625,0.03228433033429315,-66.19,1
40.078125,0.04898042444822202,-92.15,1
40.09375,0.06287316755355739,-126.22,1
40.109375,0.04000073340409618,-164.11,1
40.125,0.022834471061217148,-200.66,1
40.140625,0.02551240948260938,-231.78,1
40.15625,0.04689728849987199,-256.02,1
40.171875,0.025650109319314118,-274.68,1
40.1875,0.03547401396342058,-290.27,1
40.203125,0.027413052869965242,-304.46,1
40.21875,0.05018819055233006,-316.54,1
40.234375,0.02769132676954894,-323.53,1
40.25,0.0290896186664303,-321.88,1
40.265625,0.021258153723548816,-309.6,1
40.28125,0.02853742059281592,-287.67,1
40.296875,0.07602003352281281,-259.52,1
40.3125,0.13631004207490424,-228.98,1
40.328125,0.1057906832051284,-197.85,1
40.34375,0.04131622017829981,-164.8,1
40.359375,-0.014346993274243403,-126.28,1
40.375,0.0010310310704626322,-78.89,1
40.390625,-0.04117890714860577,-21.61,1
40.40625,0.027622378064444623,43.37,1
40.421875,0.12145602567218453,111.34,1
40.4375,0.462440866231663,176.71,1
40.453125,0.5921391169148674,234.72,1
40.46875,0.00015448170748363565,282.07,1
40.484375,-0.1756535801842923,316.96,1
40.5,-0.213847186988945,338.9,1
40.515625,-0.21857509049741855,348.48,1
40.53125,-0.21908043395702476,347.38,1
40.546875,-0.1924713671233507,338.26,1
40.5625,-0.19001321329993986,324.51,1
40.578125,-0.1631224222666073,309.7,1
40.59375,-0.17999725200944033,296.76,1
40.609375,-0.1807760665278332,287.17,1
40.625,-0.2202840166542075,280.7,1
40.640625,-0.22846008807725168,275.7,1
40.65625,-0.2065368872083085,269.58,1
40.671875,-0.1507321801781795,259.48,1
40.6875,-0.04885436393758773,243.02,1
40.703125,0.05330642626773878,218.95,1
40.71875,0.08548993911996897,187.64,1
40.734375,0.10224747471541651,151.11,1
40.75,0.06881968337867565,112.71,1
40.765625,0.05535197856887495,76.43,1
40.78125,0.04653754113641409,45.91,1
40.796875,0.05974455514535128,23.62,1
40.8125,0.03782303545194031,10.37,1
40.828125,0.041860695933229955,5.55,1
40.84375,0.04911212097505522,7.67,1
40.859375,0.040848554541116244,14.97,1
40.875,0.06806906033038344,25.69,1
40.890625,0.047972408157870204,37.96,1
40.90625,0.02655458829132616,49.57,1
40.921875,0.04217511036116919,57.97,1
40.9375,0.04468957328736401,60.72,1
40.953125,0.033624785468435364,56.15,1
40.96875,0.03504803947869806,43.97,1
40.984375,0.030392934272390038,25.26,1
41.0,0.01921453611334502,1.87,1
41.015625,0.042977771559501984,-24.37,1
41.03125,0.03541279109828988,-51.97,1
41.046875,0.02212252312579059,-79.63,1
41.0625,-0.0012247919552404384,-105.69,1
41.078125,0.03234007359108581,-127.67,1
41.09375,0.0102587518388445,-142.59,1
41.109375,0.03393492212177159,-147.94,1
41.125,0.01613872814588104,-142.85,1
41.140625,0.03054488720842711,-128.77,1
41.15625,0.04508143150042197,-109.1,1
41.171875,0.12682451188035188,-88.03,1
41.1875,0.06967080956922095,-69.03,1
41.203125,0.02434008979351918,-53.84,1
41.21875,-0.024961642844637172,-42.25,1
41.234375,-0.017531995781050674,-32.75,1
41.25,-0.05050791903741586,-23.55,1
41.265625,0.0675438732066725,-13.45,1
41.28125,0.10910813880312002,-2.26,1
41.296875,0.5549126782741399,9.45,1
41.3125,0.5172656439197403,20.73,1
41.328125,-0.08427894055887755,30.71,1
41.34375,-0.16943806437151074,38.91,1
41.359375,-0.2093039233365909,45.14,1
41.375,-0.22151823962636302,49.42,1
41.390625,-0.20899236655616057,51.88,1
41.40625,-0.1865809391046841,52.9,1
41.421875,-0.17720408485000755,53.06,1
41.4375,-0.17258782602861342,53.2,1
41.453125,-0.15570577989429674,54.05,1
41.46875,-0.1891167717456015,55.95,1
41.484375,-0.22373141615822142,58.62,1
41.5,-0.21129088948967156,61.28,1
41.515625,-0.18780365267255597,62.88,1
41.53125,-0.12235495036265041,62.62,1
41.546875,-0.02907771178398093,60.14,1
41.5625,0.06236182178573029,55.62,1
41.578125,0.09741650303414183,49.52,1
41.59375,0.08063498372703892,42.37,1
41.609375,0.08431336124325589,34.69,1
41.625,0.0713942728390083,26.91,1
41.640625,0.033004780642191686,19.47,1
41.65625,0.038633167477140164,12.72,1
41.671875,0.04911027048743443,6.93,1
41.6875,0.05139809675288209,2.08,1
41.703125,0.0745182720981751,-2.16,1
41.71875,0.05560583555429604,-6.37,1
41.734375,0.04232081160174665,-11.19,1
41.75,0.055217908273115984,-17.06,1
41.765625,0.05637105211512701,-23.96,1
41.78125,0.05180318250962981,-31.32,1
41.796875,0.05241957689576574,-38.17,1
41.8125,0.045380519228003534,-43.37,1
41.828125,0.04476949303878431,-45.99,1
41.84375,0.03515920726002769,-45.58,1
41.859375,0.03776445114763867,-42.26,1
41.875,0.03679050206830721,-36.47,1
41.890625,0.020872127434279027,-28.86,1
41.90625,0.03144686274650909,-20.0,1
41.921875,0.027392119971491883,-10.37,1
41.9375,0.02709540170401149,-0.43,1
41.953125,0.008232803589422638,9.25,1
41.96875,0.022461855916844867,17.93,1
41.984375,0.02329051778713574,24.85,1
42.0,0.005839572587921901,29.51,1
42.015625,0.03078204745230176,31.93,1
42.03125,0.0450150320961673,32.66,1
42.046875,0.1024458628447316,32.67,1
42.0625,0.07424555113449244,32.93,1
42.078125,0.026921581999053302,33.98,1
42.09375,-0.014952666721853828,35.7,1
42.109375,-0.029625036740414806,37.32,1
42.125,-0.04056447320101584,37.88,1
42.140625,0.025715412579176998,36.7,1
42.15625,0.13080948144213073,33.78,1
42.171875,0.4352332973182302,29.87,1
42.1875,0.4982089217345142,26.14,1
42.203125,-0.025253628678644082,23.7,1
42.21875,-0.17572535709043505,23.07,1
42.234375,-0.1973732561283821,24.01,1
42.25,-0.19095035071164382,25.65,1
42.265625,-0.1980502236200117,27.0,1
42.28125,-0.18623632202463913,27.44,1
42.296875,-0.1632294446558609,27.03,1
42.3125,-0.1422874876170499,26.14,1
42.328125,-0.14842042829538227,25.02,1
42.34375,-0.1755656649116896,23.3,1
42.359375,-0.19182440884013846,20.09,1
42.375,-0.18253331685467986,14.55,1
42.390625,-0.17074214719894043,6.78,1
42.40625,-0.11079905843170301,-1.82,1
42.421875,-0.021910256090159844,-8.97,1
42.4375,0.06038876528151235,-12.58,1
42.453125,0.0935934286234675,-12.07,1
42.46875,0.08781304264669397,-8.82,1
42.484375,0.07627748973103585,-5.63,1
42.5,0.05051455881625177,-5.23,1
42.515625,0.05261718850549202,-8.89,1
42.53125,0.03592711235892503,-15.82,1
42.546875,0.046280973769051215,-23.79,1
42.5625,0.049745355370698435,-30.42,1
42.578125,0.04245821107325288,-34.44,1
42.59375,0.04850883157835387,-36.14,1
42.609375,0.052839804449072464,-36.93,1
42.625,0.04767339400600397,-38.5,1
42.640625,0.043989425837935046,-41.92,1
42.65625,0.043701018293401006,-47.26,1
42.671875,0.02638388416904025,-53.65,1
42.6875,0.037706530787386026,-59.67,1
42.703125,0.02789457341737626,-63.76,1
42.71875,0.043920292485865,-64.64,1
42.734375,0.0498568438471,-61.62,1
42.75,0.02630050764330451,-54.8,1
42.765625,0.011003415895043743,-45.06,1
42.78125,0.030004634836448153,-33.81,1
42.796875,0.02692916670252507,-22.54,1
42.8125,0.04024008016812483,-12.2,1
42.828125,0.02735128437473495,-3.13,1
42.84375,0.008295651426069152,4.86,1
42.859375,0.005991890934714695,12.0,1
42.875,0.01981307812391924,18.2,1
42.890625,-0.0014073340920597256,22.96,1
42.90625,0.04073161168175466,25.68,1
42.921875,-0.002283781680365563,26.12,1
42.9375,0.016732222571685718,24.64,1
42.953125,-0.006146190160672141,22.15,1
42.96875,0.004660868290949853,19.71,1
42.984375,-0.014464434634403701,17.94,1
43.0,0.0929802278441135,16.92,1
43.015625,0.2312064805748463,16.33,1
43.03125,0.5604514737260702,15.74,1
43.046875,0.40038999601209324,15.02,1
43.0625,-0.0931069310468677,14.43,1
43.078125,-0.16670071544038634,14.35,1
43.09375,-0.19058709414722771,14.93,1
43.109375,-0.1723177303959161,16.01,1
43.125,-0.18313950562493017,17.06,1
43.140625,-0.16552765787704224,17.55,1
43.15625,-0.1596098115052381,17.22,1
43.171875,-0.1577489614438453,16.19,1
43.1875,-0.17181726591908072,14.86,1
43.203125,-0.1921851340206123,13.65,1
43.21875,-0.2175663391034498,12.73,1
43.234375,-0.21979540390394994,11.97,1
43.25,-0.19225940681770265,11.12,1
43.265625,-0.12019156827752636,9.98,1
43.28125,-0.03198298432176773,8.58,1
43.296875,0.04187984698359982,6.99,1
43.3125,0.07503984908315711,5.25,1
43.328125,0.06995283061185147,3.2,1
43.34375,0.0613213358027731,0.6,1
43.359375,0.04620857049266133,-2.72,1
43.375,0.03438626719143368,-6.72,1
43.390625,0.025662612432676195,-11.03,1
43.40625,0.022208720664534252,-15.18,1
43.421875,0.03867581976249542,-18.79,1
43.4375,0.024244484801982324,-21.78,1
43.453125,0.0666169955288028,-24.38,1
43.46875,0.030217117621087725,-26.98,1
43.484375,0.034785728225212115,-29.96,1
43.5,0.03757548768772316,-33.51,1
43.515625,0.046355299852260626,-37.57,1
43.53125,0.03239839943229768,-41.9,1
43.546875,0.03454508186492436,-46.19,1
43.5625,0.0322036095067358,-50.09,1
43.578125,0.029074261434623154,-53.24,1
43.59375,0.036121573912237644,-55.27,1
43.609375,0.045077229940878746,-55.72,1
43.625,0.01667353029072011,-54.13,1
43.640625,0.014662080529761954,-50.26,1
43.65625,0.029823460711929383,-44.27,1
43.671875,0.021030409155840393,-36.78,1
43.6875,0.022735926466869352,-28.87,1
43.703125,0.022443728946076266,-21.61,1
43.71875,0.004808360710443991,-15.74,1
43.734375,0.007580791002687533,-11.41,1
43.75,0.006022681294418735,-8.18,1
43.765625,0.022575446852099675,-5.44,1
43.78125,0.017578630062626648,-2.78,1
43.796875,0.0857255648365455,-0.23,1
43.8125,0.09550309271442586,1.85,1
43.828125,0.039239165447821585,3.17,1
43.84375,-0.005296712526478636,3.85,1
43.859375,-0.005295883958688841,4.42,1
43.875,-0.0480444994316062,5.62,1
43.890625,-0.014703223302130843,7.88,1
43.90625,0.06200661119412437,11.06,1
43.921875,0.3585609969990498,14.55,1
43.9375,0.7087420209881563,17.68,1
43.953125,0.168442576381687,20.14,1
43.96875,-0.16643324048362784,22.1,1
43.984375,-0.21963486017614176,23.97,1
44.0,-0.22350372660373816,26.02,1
44.015625,-0.21092749411534478,28.03,1
44.03125,-0.18180629881817711,29.48,1
44.046875,-0.17960115523887638,29.92,1
44.0625,-0.1705899420285133,29.33,1
44.078125,-0.16964687202580817,28.24,1
44.09375,-0.1825961264340593,27.35,1
44.109375,-0.2025832099021505,27.03,1
44.125,-0.20301986000835806,27.03,1
44.140625,-0.2346407731310649,26.58,1
44.15625,-0.18809863207547523,24.85,1
44.171875,-0.09318703120886859,21.46,1
44.1875,0.02180712159745954,16.58,1
44.203125,0.08275499560762291,10.77,1
44.21875,0.10676077957626003,4.57,1
44.234375,0.09102030688895764,-1.76,1
44.25,0.07640943973727651,-8.17,1
44.265625,0.054183816279376434,-14.6,1
44.28125,0.056965253529325376,-20.71,1
44.296875,0.04772386242209905,-25.97,1
44.3125,0.05853612447799039,-29.86,1
44.328125,0.049109197488985644,-32.27,1
44.34375,0.06726628248344124,-33.56,1
44.359375,0.06820961035812911,-34.63,1
44.375,0.06765807852593902,-36.4,1
44.390625,0.055083251150263156,-39.49,1
44.40625,0.0563315414537988,-43.83,1
44.421875,0.05590977192016782,-48.64,1
44.4375,0.059444036000213266,-52.57,1
44.453125,0.03973394089601712,-54.23,1
44.46875,0.050148192296726526,-52.58,1
44.484375,0.04510796506917234,-47.29,1
44.5,0.028061890780690917,-38.85,1
44.515625,0.032668830439125524,-28.33,1
44.53125,0.034282398479253136,-17.1,1
44.546875,0.0319441548751439,-6.39,1
44.5625,0.02426734096058572,2.89,1
44.578125,0.014310975886062881,10.19,1
44.59375,0.023275588320205293,15.35,1
44.609375,0.019221069260365767,18.45,1
44.625,0.012650667490897662,19.82,1
44.640625,0.0025717817685434116,19.9,1
44.65625,0.03015893612717308,19.22,1
44.671875,0.04296098044556386,18.28,1
44.6875,0.10361677544362016,17.41,1
44.703125,0.05751154580647235,16.79,1
44.71875,0.029240729707278052,16.48,1
44.734375,-0.04033687116428615,16.55,1
44.75,-0.02277361298727022,17.03,1
44.765625,-0.05759384988368588,17.91,1
44.78125,0.04726714204647305,18.98,1
44.796875,0.13268505110430603,19.9,1
44.8125,0.5881189314733704,20.28,1
44.828125,0.5248761634165118,19.79,1
44.84375,-0.08310403899248545,18.44,1
44.859375,-0.185496084211629,16.54,1
44.875,-0.22439695296941278,14.6,1
44.890625,-0.20714427311986883,13.14,1
44.90625,-0.2180103438551513,12.46,1
44.921875,-0.19419151559087303,12.51,1
44.9375,-0.18678715699102574,13.03,1
44.953125,-0.17732485915449547,13.59,1
44.96875,-0.18850813222735713,13.86,1
44.984375,-0.2044764238176749,13.61,1
45.0,-0.22169912851741494,12.81,1
45.015625,-0.2291416614642464,11.44,1
45.03125,-0.21834236313980845,9.54,1
45.046875,-0.14040898671619062,7.12,1
45.0625,-0.03666403553563418,4.27,1
45.078125,0.05385499445641294,1.17,1
45.09375,0.09035998354998517,-1.94,1
45.109375,0.09322305878682152,-4.85,1
45.125,0.07452246346368814,-7.54,1
45.140625,0.0635304698350566,-10.19,1
45.15625,0.041214661587189665,-13.11,1
45.171875,0.03471324819270804,-16.58,1
45.1875,0.03966558305081925,-20.57,1
45.203125,0.030073895081419277,-24.86,1
45.21875,0.04766514717241835,-29.11,1
45.234375,0.04970173340129666,-33.11,1
45.25,0.058545484506498366,-37.0,1
45.265625,0.04827011073121566,-41.22,1
45.28125,0.0356193845209275,-46.22,1
45.296875,0.035477772113580795,-52.06,1
45.3125,0.04711821454420969,-58.13,1
45.328125,0.04617348977181155,-63.16,1
45.34375,0.04047424045601926,-65.58,1
45.359375,0.041109884872305914,-64.09,1
45.375,0.038132669916180924,-58.19,1
45.390625,0.031181319107852858,-48.37,1
45.40625,0.031461987327021414,-35.97,1
45.421875,0.03168234179475439,-22.65,1
45.4375,0.02231195809332009,-9.8,1
45.453125,0.029308091669990672,1.85,1
45.46875,0.03920087078609214,12.2,1
45.484375,0.049021458148230425,21.47,1
45.5,0.11403139025789095,29.84,1
45.515625,0.07941065133622291,37.18,1
45.53125,0.036830964236472225,43.18,1
45.546875,-0.020289051434769383,47.72,1
45.5625,-0.023974781368237982,51.1,1
45.578125,-0.03978391480872703,53.78,1
45.59375,0.0439475691714057,55.93,1
45.609375,0.17564845072187862,56.96,1
45.625,0.370281526859766,55.54,1
45.640625,0.4550994508322817,50.38,1
45.65625,-0.033173647165917926,41.17,1
45.671875,-0.16856217585376693,29.16,1
45.6875,-0.1807436898024958,16.8,1
45.703125,-0.17644996879591576,6.64,1
45.71875,-0.16767671130131856,0.04,1
45.734375,-0.16272904073845348,-3.32,1
45.75,-0.13879339870693155,-4.91,1
45.765625,-0.1380304040047737,-6.24,1
45.78125,-0.12679849741455146,-7.82,1
45.796875,-0.1664765187371531,-9.05,1
45.8125,-0.17311134017735866,-8.87,1
45.828125,-0.1625229005255783,-6.79,1
45.84375,-0.12421254623274518,-3.3,1
45.859375,-0.06361887457887412,0.48,1
45.875,-0.005506374489528917,3.69,1
45.890625,0.07395269314206553,6.33,1
45.90625,0.0928303499756566,9.18,1
45.921875,0.08792098634624256,13.04,1
45.9375,0.08570568875327954,17.99,1
45.953125,0.08309715917743446,23.0,1
45.96875,0.07565061976988408,26.23,1
45.984375,0.05289082432557782,25.87,1
46.0,0.060682117347536195,20.98,1
46.015625,0.06350408999788175,11.91,1
46.03125,0.06022022211695876,0.25,1
46.046875,0.06630025133917315,-11.9,1
46.0625,0.049202550901911106,-22.6,1
46.078125,0.04533519049482661,-30.81,1
46.09375,0.04474984389080527,-36.62,1
46.109375,0.034618176485535355,-41.08,1
46.125,0.04022624447065206,-45.56,1
46.140625,0.038590045553915396,-51.05,1
46.15625,0.04003394261778111,-57.69,1
46.171875,0.04502784384013994,-64.64,1
46.1875,0.050313305457956564,-70.37,1
46.203125,0.0563861222566649,-73.26,1
46.21875,0.12886682835590385,-72.09,1
46.234375,0.11936230046673459,-66.37,1
46.25,0.05734829384066412,-56.38,1
46.265625,-0.010624976272851161,-42.94,1
46.28125,-0.01635845445985404,-27.07,1
46.296875,-0.03540251818155554,-9.69,1
46.3125,-0.012043414610848178,8.45,1
46.328125,0.14207700864030484,26.77,1
46.34375,0.3767514123670167,44.72,1
46.359375,0.5530221885847659,61.58,1
46.375,0.1425394360709875,76.5,1
46.390625,-0.13299975596593164,88.66,1
46.40625,-0.1591477715118547,97.46,1
46.421875,-0.17857107955962598,102.81,1
46.4375,-0.14958636858784127,105.08,1
46.453125,-0.15506994581023129,105.1,1
46.46875,-0.13200045460671592,103.87,1
46.484375,-0.13046967993801825,102.28,1
46.5,-0.1475908483361506,100.94,1
46.515625,-0.19112739463886713,99.97,1
46.53125,-0.22195311849177093,99.03,1
46.546875,-0.22847693986716414,97.45,1
46.5625,-0.22560337412789452,94.51,1
46.578125,-0.18202086110674556,89.92,1
46.59375,-0.0962910717395455,84.08,1
46.609375,-0.00965752863114598,78.07,1
46.625,0.0341861300710913,73.36,1
46.640625,0.047530666961831065,71.21,1
46.65625,0.02181798259349873,72.04,1
46.671875,0.015481809534720255,75.17,1
46.6875,0.009356020357777778,78.95,1
46.703125,0.012012321099677646,81.58,1
46.71875,-0.014657980280812942,81.86,1
46.734375,-0.00723977499150796,79.88,1
46.75,0.00594157974026661,76.87,1
46.765625,0.00019832626247060476,74.48,1
46.78125,0.007663538523326204,73.8,1
46.796875,0.0030857448334400965,74.5,1
46.8125,0.0038107612290818934,74.57,1
46.828125,0.007611359408559762,70.6,1
46.84375,0.012453405060036712,58.61,1
46.859375,0.01257474673023999,34.87,1
46.875,-0.006877048301369757,-2.89,1
46.890625,0.015766270655575197,-54.22,1
46.90625,0.048992560862223575,-114.98,1
46.921875,0.11922810416773957,-177.19,1
46.9375,0.11234717311204642,-230.38,1
46.953125,0.06727956257777756,-264.36,1
46.96875,-0.0006379410406328729,-272.53,1
46.984375,-0.018357919799395602,-254.38,1
47.0,-0.05248039528064558,-215.87,1
47.015625,-0.018494976059677783,-167.28,1
47.03125,0.1107098732340512,-119.72,1
47.046875,0.30225374323115795,-81.63,1
47.0625,0.6345288652242,-56.72,1
47.078125,0.17853553885864928,-44.06,1
47.09375,-0.17354915893501213,-39.67,1
47.109375,-0.1995396906007119,-38.74,1
47.125,-0.22475018034431068,-37.54,1
47.140625,-0.19820648444821307,-34.45,1
47.15625,-0.19746880334049147,-29.8,1
47.171875,-0.194791583335911,-25.07,1
47.1875,-0.1671335430185327,-21.72,1
47.203125,-0.16346632456337956,-20.06,1
47.21875,-0.15636569334074238,-18.92,1
47.234375,-0.19135452229898464,-16.07,1
47.25,-0.21411200365260413,-9.51,1
47.265625,-0.20652208528153385,1.49,1
47.28125,-0.14928455920175182,15.76,1
47.296875,-0.049071900124259486,30.9,1
47.3125,0.04387557556112539,44.39,1
47.328125,0.06614528484755856,54.94,1
47.34375,0.07116581914864259,62.99,1
47.359375,0.0694486873527096,70.14,1
47.375,0.07161952038961958,77.81,1
47.390625,0.05441599813228318,86.03,1
47.40625,0.051539551797906945,93.0,1
47.421875,0.023829189432807867,95.82,1
47.4375,0.02857528915301089,91.93,1
47.453125,0.04468122678386763,80.44,1
47.46875,0.054988296857595785,62.46,1
47.484375,0.05340471378623833,40.75,1
47.5,0.04806800570386548,18.29,1
47.515625,0.054385609397028786,-2.72,1
47.53125,0.0521318680653525,-21.55,1
47.546875,0.042995615019371186,-38.75,1
47.5625,0.04389965417485193,-55.48,1
47.578125,0.05228274866359225,-72.79,1
47.59375,0.09381058556276976,-91.14,1
47.609375,0.14165328223734175,-110.48,1
47.625,0.16568197864703663,-130.32,1
47.640625,0.11287465432772435,-149.94,1
47.65625,0.041518287664063055,-168.31,1
47.671875,-0.019551899940870344,-184.37,1
47.6875,-0.021709581837177427,-197.23,1
47.703125,-0.019691721153504902,-206.76,1
47.71875,0.12130067480407401,-213.87,1
47.734375,0.20429581643891428,-220.39,1
47.75,0.6040991096962124,-228.33,1
47.765625,0.3101945641779439,-238.69,1
47.78125,-0.14550969742681477,-250.58,1
47.796875,-0.18069522041028666,-260.93,1
47.8125,-0.21045500428918912,-265.13,1
47.828125,-0.19914859930339526,-258.32,1
47.84375,-0.18595155758747448,-237.06,1
47.859375,-0.16294742726839478,-200.41,1
47.875,-0.17010278702675183,-150.37,1
47.890625,-0.1580816375110114,-91.38,1
47.90625,-0.16179839356034986,-29.21,1
47.921875,-0.17518063388729171,30.27,1
47.9375,-0.19069711015718363,82.33,1
47.953125,-0.1829801698545811,123.99,1
47.96875,-0.1431728676497246,154.06,1
47.984375,-0.06386589046940205,172.83,1
48.0,0.026853061843869507,181.43,1
48.015625,0.07581036548497917,181.45,1
48.03125,0.08371559961701412,174.78,1
48.046875,0.07457963122776612,163.66,1
48.0625,0.06930471736759387,150.58,1
48.078125,0.051242273569351106,137.81,1
48.09375,0.03570774208338319,126.94,1
48.109375,0.029856217960203442,118.38,1
48.125,0.03480693677334866,111.33,1
48.140625,0.043526755811612285,104.38,1
48.15625,0.050454543444250634,96.37,1
48.171875,0.04016825061316533,86.84,1
48.1875,0.05755370665561404,76.25,1
48.203125,0.05091519789086079,65.53,1
48.21875,0.057285412855211715,55.6,1
